1659773479.00
64.000000
-0.00
-0.00
-0.00
-0.00
-0.00
-0.00
-0.00
-0.00
-0.00
-0.00
0.00
0.01
0.01
-0.00
-0.03
-0.05
-0.05
0.00
0.13
0.36
0.66
1.01
1.37
1.72
2.06
2.40
2.79
3.24
3.80
4.42
5.06
5.66
6.20
6.68
7.15
7.68
8.31
9.14
10.09
11.04
11.88
12.56
13.14
13.76
14.65
15.96
17.91
20.32
22.90
25.38
27.58
29.57
31.68
34.32
37.81
42.54
48.15
54.10
59.83
64.97
69.58
74.14
79.34
85.71
93.76
103.00
112.62
121.73
129.77
136.75
143.30
150.75
157.77
166.64
177.95
191.79
206.97
220.57
228.25
225.36
208.53
176.87
132.77
80.08
23.11
-34.91
-92.44
-149.24
-205.41
-260.66
-314.12
-364.29
-410.24
-451.27
-486.83
-516.07
-537.61
-549.71
-550.57
-539.07
-514.95
-479.40
-434.56
-383.12
-327.75
-270.73
-213.77
-158.06
-104.53
-53.98
-7.41
34.23
70.15
99.91
123.60
141.80
155.37
165.27
172.28
176.80
178.95
178.64
175.81
170.66
163.72
155.73
147.51
139.64
132.31
125.27
118.02
110.04
101.12
91.50
81.79
72.72
64.83
58.25
52.67
47.48
42.05
35.86
28.56
20.12
11.05
2.61
-3.28
-4.55
0.17
10.61
24.59
38.57
48.89
53.23
51.40
45.18
37.31
30.26
25.35
22.68
21.67
21.69
22.50
24.15
26.55
29.17
30.95
30.63
27.41
21.49
14.01
6.70
1.05
-2.35
-3.93
-4.66
-5.38
-6.25
-6.79
-6.41
-4.97
-3.02
-1.42
-0.78
-1.11
-1.87
-2.46
-2.63
-2.64
-2.92
-3.62
-4.39
-4.64
-3.91
-2.28
-0.39
0.92
1.09
0.07
-1.70
-3.35
-3.92
-2.73
0.34
4.61
8.78
11.43
11.69
9.67
6.40
3.30
1.38
0.82
1.06
1.41
1.60
1.99
3.15
5.29
7.98
10.22
11.05
10.07
7.72
5.01
3.21
3.14
4.84
7.60
10.16
11.27
10.16
6.93
2.59
-1.26
-3.05
-1.94
1.89
7.25
12.32
15.24
14.47
9.36
0.52
-10.00
-19.09
-23.26
-19.89
-8.60
8.00
24.88
36.01
37.07
27.17
9.12
-11.81
-30.24
-42.68
-48.45
-48.93
-46.27
-41.82
-35.99
-28.61
-19.63
-9.77
-0.52
6.47
10.24
10.94
9.74
8.08
7.10
7.05
7.37
7.07
5.33
2.05
-2.12
-6.01
-8.47
-8.99
-7.75
-5.53
-3.23
-1.48
-0.36
0.41
1.23
2.34
3.68
5.16
6.56
8.00
9.54
11.11
12.42
13.14
13.22
12.65
11.68
10.61
9.64
8.67
7.44
5.66
3.19
0.14
-3.24
-6.56
-9.49
-11.77
-13.24
-13.88
-13.73
-12.89
-11.51
-9.87
-8.23
-6.87
-6.00
-5.72
-5.92
-6.33
-6.60
-6.43
-5.74
-4.66
-3.52
-2.67
-2.23
-2.10
-1.95
-1.38
-0.14
1.80
4.34
7.24
10.26
13.28
16.20
18.95
21.36
23.17
24.12
24.03
22.92
21.01
18.74
16.58
14.89
13.85
13.38
13.19
12.96
12.45
11.56
10.40
9.13
7.92
6.90
6.11
5.62
5.50
5.78
6.43
7.40
8.54
9.75
10.92
12.01
13.05
14.08
15.05
15.75
15.79
14.69
12.07
7.92
2.57
-3.25
-8.79
-13.60
-17.80
-21.91
-26.47
-31.69
-37.36
-42.97
-47.99
-52.21
-55.97
-60.07
-65.32
-71.93
-79.26
-86.05
-90.85
-92.40
-90.10
-84.20
-75.95
-67.11
-59.19
-53.17
-49.17
-46.52
-43.43
-37.66
-27.18
-11.51
8.14
29.36
49.20
64.96
73.36
71.84
61.07
45.91
32.29
24.29
23.13
27.60
35.17
42.88
49.81
55.73
61.18
65.96
69.09
69.50
66.54
60.62
53.10
46.53
40.83
37.68
37.82
40.43
43.72
45.71
46.81
46.38
43.98
39.25
32.33
23.01
10.25
-5.45
-22.57
-38.39
-49.82
-55.01
-54.60
-50.68
-45.84
-41.92
-39.34
-37.71
-36.21
-34.64
-33.13
-32.00
-31.12
-30.24
-29.00
-26.96
-24.46
-21.08
-16.95
-12.40
-7.84
-3.39
0.87
4.86
8.50
11.65
14.22
15.96
16.75
16.71
16.30
16.07
16.44
17.57
19.05
20.15
19.76
16.85
10.88
2.17
-8.08
-18.12
-26.13
-30.89
-32.10
-30.43
-27.07
-23.15
-19.27
-15.46
-11.44
-7.02
-2.32
2.42
7.02
11.59
16.46
21.84
27.57
32.97
37.06
38.98
38.48
36.16
33.13
30.47
28.57
27.21
25.76
23.67
20.82
17.47
13.90
9.89
4.64
-2.87
-12.85
-24.46
-36.11
-46.28
-54.22
-60.19
-65.07
-69.67
-74.02
-76.91
-76.62
-72.01
-63.26
-51.87
-39.73
-28.31
-16.53
-3.54
11.24
27.56
44.03
58.24
67.59
70.62
68.75
63.18
55.32
46.72
38.63
31.71
26.06
21.37
17.02
12.31
5.99
-2.88
-14.08
-26.32
-37.70
-46.43
-52.75
-55.84
-54.89
-49.69
-40.63
-28.68
-15.50
-3.01
7.49
15.06
20.20
24.09
28.18
33.26
38.80
43.15
45.62
45.70
43.79
41.26
39.52
39.46
40.87
43.48
46.73
49.82
51.63
51.10
47.84
42.07
34.61
26.58
19.05
12.53
7.05
2.27
-1.95
-5.30
-7.39
-8.12
-8.03
-8.10
-9.41
-12.51
-17.23
-22.67
-27.68
-31.43
-33.74
-35.01
-35.86
-36.72
-37.67
-38.49
-38.87
-38.57
-37.59
-36.13
-34.47
-32.84
-31.34
-29.92
-28.49
-26.97
-25.35
-23.70
-22.09
-20.49
-18.77
-16.79
-14.44
-11.72
-8.77
-5.78
-2.92
-0.33
1.90
3.74
5.15
6.14
6.73
6.96
6.86
6.44
5.69
4.62
3.28
1.78
0.27
-1.07
-2.07
-2.61
-2.64
-2.25
-1.63
-1.02
-0.63
-0.60
-0.91
-1.45
-2.05
-2.57
-2.86
-2.82
-2.32
-1.30
0.25
2.17
4.19
6.00
7.35
8.16
8.53
8.63
8.62
8.58
8.46
8.18
7.65
6.84
5.80
4.62
3.37
2.16
1.01
-0.02
-0.88
-1.56
-2.01
-2.23
-2.28
-2.25
-2.28
-2.48
-2.86
-3.31
-3.63
-3.56
-2.91
-1.59
0.35
2.78
5.49
8.23
10.74
12.83
14.34
15.24
15.63
15.80
16.15
17.18
19.27
22.55
26.63
30.69
33.65
34.62
33.24
29.85
25.27
20.37
15.75
11.60
7.90
4.66
2.03
0.16
-1.07
-2.16
-3.78
-6.50
-10.44
-15.23
-20.25
-25.03
-29.48
-33.88
-38.49
-43.23
-47.51
-50.41
-51.19
-49.66
-46.43
-42.56
-39.19
-36.92
-35.69
-34.85
-33.58
-31.34
-28.11
-24.29
-20.43
-16.91
-13.80
-10.94
-8.14
-5.38
-2.89
-1.07
-0.30
-0.68
-2.02
-3.89
-5.76
-7.24
-8.21
-8.74
-9.06
-9.38
-9.82
-10.36
-10.91
-11.38
-11.73
-11.91
-11.81
-11.28
-10.13
-8.22
-5.52
-2.15
1.70
5.84
10.16
14.63
19.31
24.23
29.39
34.71
39.99
44.94
49.18
52.34
54.19
54.69
54.06
52.72
51.02
49.20
47.30
45.21
42.74
39.73
36.15
32.08
27.68
23.07
18.36
13.63
8.92
4.25
-0.40
-5.03
-9.56
-13.89
-17.93
-21.68
-24.90
-27.42
-29.17
-30.33
-31.24
-32.20
-33.45
-35.10
-37.18
-39.08
-40.15
-40.09
-39.19
-38.08
-37.28
-36.92
-36.68
-35.95
-33.21
-27.18
-17.38
-4.60
9.63
23.82
36.83
47.96
56.84
64.42
71.81
79.85
88.50
97.52
106.98
117.34
128.88
134.65
128.24
106.72
73.18
33.66
-6.30
-43.38
-75.86
-102.64
-122.35
-131.96
-128.41
-110.12
-79.38
-41.91
-5.32
23.03
38.35
39.73
30.90
18.11
9.01
6.93
12.89
25.50
41.37
55.82
64.14
63.46
51.28
30.80
6.47
-17.18
-36.90
-51.06
-59.50
-63.03
-62.62
-59.45
-54.86
-49.90
-45.40
-41.77
-38.66
-35.06
-29.66
-21.37
-9.92
4.11
18.08
29.31
36.09
38.20
36.76
33.51
30.36
27.80
25.87
24.16
22.39
20.54
18.73
17.05
15.12
12.09
7.06
-0.63
-10.97
-22.76
-33.84
-41.83
-45.15
-43.73
-39.00
-33.16
-28.09
-24.61
-22.39
-20.55
-18.47
-16.16
-14.11
-13.04
-12.50
-11.58
-9.28
-5.12
0.55
6.67
12.01
15.64
17.28
17.24
16.04
14.27
12.35
10.56
9.09
8.00
7.22
6.55
5.78
4.78
3.62
2.53
1.69
1.12
0.58
-0.36
-2.03
-4.49
-7.63
-10.77
-13.43
-15.35
-16.52
-17.09
-17.23
-17.06
-16.62
-15.89
-14.82
-13.41
-11.67
-9.65
-7.50
-5.47
-3.78
-2.58
-1.82
-1.34
-0.99
-0.68
-0.40
-0.18
-0.04
0.12
0.40
0.87
1.50
2.13
2.61
2.81
2.65
2.13
1.30
0.28
-0.71
-1.38
-1.48
-0.87
0.41
2.16
4.03
5.69
6.88
7.43
7.35
6.71
5.64
4.31
2.77
1.04
-0.93
-3.16
-5.58
-8.06
-10.43
-12.55
-14.37
-15.87
-17.03
-17.83
-18.25
-18.35
-18.21
-17.91
-17.36
-16.24
-14.07
-10.44
-5.16
1.55
9.16
16.95
24.26
30.62
35.79
39.71
42.44
44.09
44.83
44.81
44.16
42.91
41.03
38.50
35.33
31.68
27.79
23.93
20.32
17.05
14.13
11.51
9.13
7.00
5.11
3.41
1.79
0.11
-1.71
-3.63
-5.46
-6.94
-7.82
-7.99
-7.55
-6.71
-5.81
-5.16
-5.01
-5.45
-6.41
-7.71
-9.08
-10.32
-11.32
-12.13
-12.83
-13.54
-14.22
-14.79
-15.12
-15.13
-14.87
-14.41
-13.87
-13.31
-12.75
-12.19
-11.64
-11.15
-10.80
-10.61
-10.56
-10.55
-10.42
-10.03
-9.28
-8.19
-6.86
-5.52
-4.38
-3.62
-3.30
-3.39
-3.80
-4.41
-5.14
-5.93
-6.71
-7.42
-7.95
-8.21
-8.15
-7.80
-7.20
-6.44
-5.66
-4.92
-4.24
-3.58
-2.85
-2.02
-1.07
-0.08
0.86
1.69
2.47
3.35
4.51
6.07
7.95
9.96
11.79
13.21
14.17
14.74
15.07
15.23
15.23
14.99
14.39
13.33
11.80
9.90
7.76
5.54
3.40
1.52
0.01
-1.17
-2.24
-3.50
-5.17
-7.32
-9.86
-12.54
-14.91
-16.61
-17.57
-18.01
-18.23
-18.41
-18.53
-18.53
-18.30
-17.35
-15.29
-12.03
-7.95
-3.65
0.26
3.26
4.93
5.15
4.75
4.77
5.83
7.78
10.12
12.40
14.41
16.08
17.59
20.20
25.31
33.70
44.87
57.37
69.11
77.77
81.03
72.74
50.40
17.27
-18.61
-49.24
-69.71
-78.24
-75.14
-62.56
-44.13
-23.55
-4.46
11.47
23.25
31.02
35.96
39.27
40.89
39.75
35.24
27.49
17.59
7.08
-2.08
-9.19
-13.08
-13.89
-13.00
-11.84
-11.18
-10.53
-8.46
-4.32
2.30
10.23
16.44
17.98
14.42
8.17
2.84
0.59
0.91
1.34
-0.57
-5.42
-11.47
-15.66
-15.72
-11.61
-5.36
0.58
4.69
6.57
6.44
4.33
0.22
-5.39
-11.08
-14.90
-15.13
-11.16
-3.97
4.19
10.53
12.79
10.16
3.31
-6.06
-15.76
-23.18
-26.00
-21.61
-9.98
5.14
17.94
23.96
21.76
12.71
-0.03
-12.37
-20.24
-21.13
-15.36
-6.16
1.49
3.27
-2.09
-12.17
-22.57
-29.78
-33.30
-35.10
-37.22
-39.72
-40.59
-37.27
-28.93
-17.47
-6.69
-0.30
0.15
-4.19
-10.25
-14.96
-16.59
-15.09
-11.78
-8.51
-6.20
-4.85
-3.63
-1.32
2.78
8.27
13.59
16.72
16.32
12.48
6.86
2.08
0.52
3.18
9.38
17.06
23.51
26.44
24.48
17.42
6.23
-7.04
-19.66
-28.63
-31.75
-28.41
-19.72
-7.98
4.17
14.72
22.65
26.67
27.14
25.54
23.73
23.41
25.52
29.65
34.22
37.14
36.97
33.82
28.82
23.19
17.55
11.86
5.98
0.43
-3.78
-5.89
-6.03
-5.50
-5.88
-7.74
-10.03
-10.69
-8.07
-2.25
4.79
10.24
11.99
9.67
4.63
-0.96
-5.39
-8.23
-9.82
-10.76
-11.33
-11.41
-10.77
-9.46
-7.92
-6.76
-6.43
-6.98
-8.03
-9.16
-10.12
-10.95
-11.87
-13.09
-14.52
-15.81
-16.57
-16.39
-15.04
-12.42
-8.64
-4.32
-0.54
1.48
0.93
-2.39
-7.81
-14.11
-19.76
-23.25
-23.66
-21.00
-16.26
-10.38
-4.93
-1.12
1.11
3.40
8.14
16.72
28.26
39.73
47.28
47.76
40.06
25.64
8.21
-7.53
-17.58
-19.87
-14.22
-2.06
13.91
30.45
42.96
47.15
42.54
32.57
21.19
10.57
1.51
-5.39
-9.46
-10.45
-8.60
-4.88
-0.92
1.63
2.27
1.99
2.59
5.33
9.91
14.86
18.53
19.67
17.29
11.11
1.81
-8.64
-17.37
-21.35
-18.59
-10.06
1.67
12.22
17.18
14.22
4.45
-8.16
-18.26
-21.22
-15.05
-1.40
14.89
28.79
35.32
32.31
21.09
5.63
-9.64
-21.88
-30.94
-38.37
-45.19
-50.34
-51.16
-46.07
-36.32
-25.83
-18.45
-15.58
-15.63
-15.37
-12.86
-9.41
-8.89
-14.12
-24.14
-31.56
-28.07
-11.94
8.68
21.74
20.15
5.66
-13.20
-27.60
-33.53
-33.61
-33.89
-38.55
-46.45
-52.29
-52.21
-44.27
-31.46
-19.84
-14.94
-18.11
-25.42
-29.85
-25.70
-12.29
5.94
22.06
31.01
32.07
29.19
27.62
32.28
43.33
55.96
62.81
58.99
45.61
28.32
13.65
6.59
6.64
11.27
17.70
24.08
30.14
36.90
43.76
49.89
53.19
50.74
40.80
24.88
8.62
0.02
5.14
23.93
49.38
70.29
77.22
67.54
46.50
23.86
8.22
2.54
3.45
4.58
0.81
-9.09
-22.66
-36.33
-48.10
-58.29
-68.66
-80.52
-93.17
-104.18
-110.54
-110.44
-104.36
-95.18
-86.69
-81.67
-80.59
-81.54
-81.72
-79.20
-73.93
-67.30
-60.88
-55.14
-48.97
-40.63
-29.02
-14.71
0.19
13.22
22.91
29.18
33.15
36.42
40.31
45.46
51.77
58.63
65.32
71.62
76.99
80.66
82.10
81.67
80.86
81.72
85.61
92.43
101.25
109.82
115.70
117.61
115.96
112.52
109.05
106.36
104.01
101.91
99.39
95.62
90.20
83.45
76.48
70.67
67.04
58.50
41.77
17.53
-10.71
-39.00
-63.86
-82.24
-92.37
-94.44
-90.79
-83.50
-74.46
-65.69
-57.48
-50.32
-45.19
-43.01
-43.54
-44.98
-43.92
-38.18
-28.33
-17.35
-9.06
-5.68
-7.61
-12.67
-17.50
-19.05
-16.88
-13.17
-10.99
-12.49
-17.71
-24.92
-31.76
-36.73
-39.56
-41.30
-43.37
-46.40
-49.79
-52.05
-51.78
-48.53
-43.24
-37.67
-33.64
-32.04
-32.45
-33.45
-33.33
-30.89
-25.84
-18.80
-10.84
-2.91
4.61
11.87
19.36
27.35
35.49
42.74
47.67
48.95
45.76
38.08
26.65
13.07
-0.62
-12.45
-20.97
-25.65
-26.88
-25.87
-24.21
-23.53
-24.64
-27.45
-31.34
-35.45
-38.88
-40.86
-41.03
-39.34
-36.20
-31.48
-24.60
-15.06
-2.92
10.89
24.81
37.19
47.05
52.91
54.54
53.70
53.35
55.27
58.75
61.36
60.61
57.01
50.79
43.46
36.89
32.18
29.19
26.96
24.61
21.29
17.20
12.67
8.31
4.37
0.47
-4.16
-10.04
-16.99
-24.17
-30.52
-35.51
-38.71
-40.02
-39.63
-37.98
-35.57
-32.70
-29.47
-25.88
-22.15
-18.54
-15.33
-12.73
-10.81
-9.39
-8.11
-6.74
-5.47
-4.96
-5.79
-7.89
-10.61
-13.08
-14.66
-14.97
-13.89
-11.39
-7.49
-2.20
4.43
11.96
19.62
25.98
29.97
32.07
33.92
36.86
40.64
44.11
46.15
46.37
45.10
43.20
41.38
39.54
37.89
35.51
32.20
28.26
24.00
19.41
14.47
9.29
3.77
-2.22
-8.88
-16.24
-24.42
-32.92
-41.61
-50.39
-57.07
-60.13
-59.26
-55.60
-50.67
-45.59
-41.01
-37.17
-33.85
-30.47
-26.77
-22.85
-19.20
-16.92
-15.79
-15.38
-15.19
-14.58
-12.84
-9.85
-6.15
-2.80
-0.69
-0.16
-1.10
-3.12
-5.60
-7.76
-9.11
-9.73
-10.22
-11.10
-12.52
-14.23
-15.82
-16.76
-15.95
-12.10
-4.59
6.27
19.34
32.77
44.38
52.00
51.74
42.53
28.39
16.15
10.87
14.32
23.63
35.70
48.53
61.63
73.70
83.94
90.66
91.48
84.71
70.71
52.51
34.59
21.13
14.75
15.68
21.59
28.98
34.78
37.11
35.42
29.82
20.94
10.17
-0.46
-9.25
-15.40
-19.22
-21.94
-25.00
-29.49
-35.75
-42.86
-49.14
-53.10
-53.98
-52.05
-48.37
-44.28
-41.03
-39.48
-39.78
-41.61
-44.75
-48.91
-53.33
-56.47
-56.41
-52.00
-43.99
-34.69
-27.08
-23.59
-24.86
-29.67
-35.68
-40.77
-43.87
-45.14
-44.87
-42.92
-38.94
-32.48
-23.40
-12.18
-0.03
12.57
22.84
27.95
27.79
25.52
25.58
30.42
38.96
47.14
50.39
46.31
36.65
26.70
20.88
21.68
28.67
38.87
48.16
53.26
52.73
47.31
38.83
28.89
18.88
9.19
1.10
-3.57
-3.06
3.25
13.84
24.83
31.01
28.88
18.45
3.53
-9.91
-16.42
-13.46
-2.39
13.09
25.84
30.00
25.20
15.78
6.29
-1.35
-7.70
-13.95
-20.36
-25.85
-28.20
-25.52
-18.40
-8.07
3.16
12.86
19.04
20.47
17.27
11.45
6.31
4.99
8.98
17.30
27.02
35.31
39.20
37.36
31.04
22.22
13.15
4.74
-3.36
-11.80
-20.62
-29.04
-35.58
-38.71
-37.79
-33.53
-27.91
-23.18
-20.89
-21.49
-24.45
-28.57
-32.68
-36.27
-39.61
-43.56
-48.55
-54.22
-59.67
-64.06
-67.03
-68.71
-69.54
-69.81
-69.41
-67.30
-62.09
-52.84
-39.74
-23.92
-6.91
10.05
28.03
46.34
63.30
77.36
87.93
95.20
99.40
100.59
99.78
96.76
91.25
83.79
75.44
67.14
59.24
51.30
42.41
31.97
19.48
4.88
-11.14
-27.37
-42.56
-55.79
-66.62
-75.03
-81.23
-85.75
-89.16
-91.69
-93.28
-93.63
-92.41
-89.34
-84.47
-78.25
-71.67
-65.79
-61.16
-57.35
-53.00
-46.39
-36.35
-23.10
-8.32
5.43
16.05
22.93
27.22
31.06
36.36
43.82
52.84
62.06
69.95
75.00
75.53
69.73
56.37
35.89
11.32
-12.03
-28.37
-33.87
-28.53
-16.21
-2.77
6.64
9.76
7.59
3.22
-0.14
-0.72
1.53
5.49
9.89
14.01
17.87
21.84
26.15
30.60
34.56
37.40
38.83
39.13
39.00
39.18
40.06
41.42
42.45
42.11
39.67
35.03
28.88
22.47
17.18
14.00
13.32
14.81
17.56
20.40
22.36
22.91
22.11
20.51
18.79
17.60
17.12
17.08
16.88
16.03
14.34
12.06
9.76
8.03
7.44
8.40
11.34
16.52
24.02
33.06
41.80
47.51
47.38
39.94
25.77
7.54
-11.07
-26.76
-38.10
-45.38
-49.49
-52.16
-54.61
-56.76
-57.46
-57.01
-55.60
-53.95
-52.81
-52.47
-52.71
-51.83
-48.87
-43.78
-37.43
-31.17
-26.42
-23.96
-23.64
-24.48
-25.13
-24.69
-23.08
-21.07
-19.67
-19.71
-21.37
-24.14
-27.19
-29.72
-31.31
-31.75
-31.11
-29.53
-27.48
-25.59
-24.55
-24.86
-26.50
-28.96
-31.21
-32.03
-30.40
-25.91
-18.89
-10.41
-1.90
5.25
10.18
13.01
14.53
15.82
17.69
20.40
23.69
27.01
29.88
31.95
33.43
34.51
35.15
35.12
34.27
32.63
30.07
26.29
20.90
14.50
8.21
3.32
0.86
1.57
5.71
12.96
22.60
34.06
48.18
65.65
85.80
106.08
122.97
133.29
135.07
128.17
114.39
98.39
85.05
77.70
77.11
82.24
91.04
100.84
108.82
104.05
80.99
42.94
0.03
-38.52
-68.29
-88.56
-100.36
-105.26
-105.11
-100.60
-93.60
-85.55
-78.49
-73.74
-71.14
-69.48
-67.53
-64.62
-59.79
-52.92
-44.97
-37.48
-32.09
-29.38
-28.97
-30.00
-31.56
-32.18
-30.88
-27.46
-22.64
-17.33
-12.11
-7.17
-2.72
0.91
3.70
5.70
6.86
6.93
5.76
3.44
0.27
-3.48
-7.74
-12.26
-16.63
-20.44
-23.51
-25.84
-27.59
-28.80
-29.57
-30.06
-30.11
-29.01
-26.02
-20.85
-13.73
-5.53
3.00
11.22
17.43
19.81
17.96
13.10
7.30
3.51
1.84
1.81
2.83
4.39
5.32
5.79
6.32
7.36
9.10
11.23
13.48
15.43
16.57
16.78
17.14
18.64
21.51
25.24
28.77
31.47
33.13
33.90
34.20
35.68
39.56
46.02
54.23
62.76
70.51
76.97
82.16
81.75
74.13
60.78
45.07
29.61
15.06
1.55
-10.37
-19.48
-25.94
-29.18
-29.27
-27.15
-24.21
-22.01
-21.43
-22.36
-24.42
-27.13
-29.36
-30.52
-30.87
-31.32
-33.27
-37.41
-43.39
-50.10
-56.39
-61.31
-64.93
-68.15
-68.74
-65.05
-56.63
-44.64
-31.33
-19.26
-10.49
-6.08
-5.49
-6.65
-7.57
-6.42
-2.67
2.83
8.28
11.85
12.44
9.96
5.22
-0.46
-6.01
-10.81
-14.17
-14.84
-11.17
-1.78
13.21
31.59
50.14
65.37
74.67
77.47
75.30
70.78
66.37
63.27
59.18
53.28
44.88
34.05
21.93
10.12
-0.25
-9.13
-17.39
-25.95
-34.66
-42.61
-48.39
-50.83
-49.82
-46.58
-42.99
-40.65
-40.00
-39.92
-39.10
-36.62
-32.45
-27.41
-23.03
-19.67
-17.20
-15.08
-12.48
-9.10
-5.20
-1.41
1.69
3.73
4.79
5.10
5.00
4.86
4.83
4.86
4.80
4.42
3.49
1.96
-0.11
-2.39
-4.45
-5.94
-6.75
-7.00
-6.97
-6.87
-6.68
-6.32
-5.61
-4.44
-2.87
-1.20
0.18
0.94
0.97
0.43
-0.40
-1.26
-2.02
-2.77
-3.72
-5.01
-6.63
-8.40
-10.00
-11.24
-12.10
-12.78
-13.56
-14.63
-15.97
-17.36
-18.53
-19.36
-19.88
-20.27
-20.57
-20.59
-19.90
-18.02
-14.67
-9.93
-4.25
1.78
7.65
13.06
17.88
22.04
25.41
27.86
29.29
29.78
29.55
28.88
28.02
27.04
25.83
24.24
22.12
19.39
16.11
12.40
8.41
4.32
0.22
-3.81
-7.70
-11.35
-14.56
-17.06
-18.62
-19.15
-18.73
-17.61
-16.04
-14.18
-12.01
-9.51
-6.72
-3.90
-1.46
0.15
0.68
0.09
-1.39
-3.42
-5.62
-7.68
-9.40
-10.73
-11.69
-12.35
-12.71
-12.61
-11.69
-9.50
-5.66
-0.07
6.95
14.61
21.80
27.31
30.20
30.07
27.21
22.57
17.49
13.34
11.07
11.08
13.16
16.70
20.92
25.07
28.58
31.02
32.19
32.08
30.86
28.84
26.41
23.92
21.63
19.68
18.05
16.61
15.21
13.67
11.93
10.03
8.12
6.41
5.05
4.07
3.33
2.59
1.58
0.09
-1.91
-4.22
-6.52
-8.41
-9.57
-9.90
-9.45
-8.43
-7.06
-5.45
-3.65
-1.64
0.54
2.78
4.88
6.61
7.82
8.47
8.66
8.53
8.25
7.88
7.45
6.94
6.34
5.69
5.04
4.45
3.87
3.22
2.42
1.40
0.19
-1.09
-2.33
-3.45
-4.46
-5.36
-6.16
-6.80
-7.17
-7.15
-6.66
-5.76
-4.58
-3.30
-2.08
-0.95
0.10
1.14
2.18
3.17
4.01
4.59
4.85
4.83
4.58
4.15
3.57
2.83
1.94
0.95
-0.02
-0.87
-1.49
-1.86
-2.01
-2.03
-2.01
-1.93
-1.68
-0.99
0.40
2.70
5.84
9.50
13.12
16.11
17.96
18.43
17.53
15.54
12.95
10.44
8.75
8.45
9.73
12.31
15.47
18.36
20.40
21.50
22.03
22.55
23.45
24.73
26.02
26.90
27.10
26.63
25.75
24.69
23.62
22.53
21.36
20.12
18.82
17.47
15.97
14.15
11.78
8.73
5.03
0.81
-3.68
-8.19
-12.42
-16.04
-18.76
-20.46
-21.23
-21.46
-21.69
-22.35
-23.63
-25.38
-27.26
-28.93
-30.19
-31.02
-31.52
-31.85
-32.11
-32.36
-32.63
-32.94
-33.31
-33.70
-34.08
-34.44
-34.77
-35.11
-35.50
-35.97
-36.56
-37.29
-38.27
-39.54
-41.16
-43.02
-44.90
-46.47
-47.40
-47.41
-46.42
-44.41
-41.45
-37.61
-32.98
-27.69
-21.87
-15.67
-9.21
-2.54
4.35
11.48
18.79
26.11
33.13
39.54
45.06
49.49
52.72
54.86
56.22
57.24
58.27
59.25
59.77
59.17
56.77
52.12
45.19
36.29
26.02
14.99
3.87
-6.40
-14.69
-20.11
-22.49
-22.58
-21.74
-21.35
-22.21
-24.16
-26.01
-26.12
-23.18
-16.89
-7.91
2.66
13.89
25.18
34.68
39.76
38.03
28.84
13.23
-6.81
-28.71
-49.47
-66.12
-76.45
-79.36
-75.02
-64.48
-49.23
-30.74
-10.45
9.69
26.96
38.41
42.31
39.29
32.51
26.18
23.30
24.00
25.56
24.34
18.36
9.01
-0.06
-5.11
-4.96
-1.73
1.03
1.08
-0.56
-0.39
5.10
16.38
30.45
42.34
48.13
46.99
41.26
34.41
28.29
23.17
17.39
9.30
-1.16
-12.52
-23.06
-32.32
-41.48
-51.58
-62.13
-70.36
-72.05
-63.81
-45.30
-20.21
4.67
22.29
27.94
21.43
7.03
-8.75
-20.87
-26.65
-26.33
-22.14
-16.81
-12.38
-9.58
-8.06
-6.78
-4.71
-1.09
3.92
9.49
14.70
19.09
22.80
25.97
28.11
28.01
24.98
18.91
11.74
6.95
7.67
14.78
25.84
36.17
41.14
38.75
30.50
20.35
12.27
8.04
6.73
6.00
3.96
0.13
-4.55
-8.68
-11.28
-12.17
-12.25
-12.70
-13.90
-15.06
-15.23
-13.76
-10.32
-6.37
-4.41
-7.53
-17.65
-33.48
-50.57
-64.04
-70.79
-70.49
-65.06
-56.59
-46.87
-36.57
-24.98
-12.17
-1.78
0.37
-10.55
-33.12
-55.31
-62.40
-48.07
-19.51
14.02
43.76
64.82
78.28
87.10
97.25
113.39
131.54
145.67
149.38
138.44
113.60
80.23
45.94
17.45
-2.88
-17.46
-29.87
-42.32
-54.87
-65.39
-71.30
-71.40
-66.66
-60.42
-56.42
-55.53
-55.56
-54.07
-48.58
-39.38
-28.91
-20.32
-16.20
-17.51
-22.39
-26.56
-25.52
-16.73
-1.34
16.24
30.51
38.27
39.42
36.95
35.08
36.21
39.43
40.83
36.27
24.32
7.50
-9.10
-20.38
-23.99
-21.26
-15.93
-11.83
-10.82
-12.43
-14.70
-15.84
-15.10
-12.44
-8.18
-2.61
3.89
10.79
17.29
22.69
26.64
29.74
33.49
39.40
47.85
57.42
65.32
68.64
65.59
56.06
41.57
24.67
7.86
-7.16
-19.93
-30.73
-40.02
-46.17
-47.39
-42.93
-33.89
-22.83
-12.70
-6.24
-4.89
-8.21
-14.07
-19.93
-23.96
-25.74
-26.91
-28.44
-30.82
-33.49
-35.01
-33.96
-29.98
-24.22
-18.79
-15.91
-16.65
-20.53
-25.55
-28.39
-26.58
-19.86
-10.67
-2.86
0.34
-1.73
-7.11
-12.50
-15.11
-14.10
-10.50
-6.23
-2.06
1.95
6.57
12.89
21.54
32.06
42.60
50.74
54.11
51.81
44.83
35.93
28.33
24.14
23.60
25.44
28.62
31.37
32.67
31.40
25.96
14.64
-3.19
-25.89
-49.29
-66.75
-73.78
-69.35
-55.51
-35.53
-12.26
12.21
35.77
55.49
67.72
69.18
59.21
40.68
19.10
0.54
-10.75
-13.67
-9.95
-2.72
4.80
10.52
13.53
13.73
11.39
7.07
1.82
-2.83
-5.64
-6.00
-4.38
-2.23
-1.36
-3.04
-7.31
-13.02
-18.29
-21.29
-20.82
-16.16
-7.82
3.04
14.71
25.11
32.17
34.38
31.28
23.66
13.31
2.37
-7.21
-14.21
-18.40
-20.34
-20.89
-20.70
-19.90
-18.29
-15.98
-13.65
-12.37
-13.09
-15.72
-19.03
-21.27
-21.41
-19.60
-17.50
-17.02
-18.98
-22.36
-24.71
-23.53
-17.52
-7.19
5.51
18.02
28.01
33.82
34.62
30.58
22.88
13.61
5.04
-1.31
-5.24
-7.66
-9.74
-12.02
-14.03
-14.77
-13.37
-9.87
-5.29
-0.86
2.68
5.35
7.60
9.58
10.74
10.32
7.85
3.51
-1.65
-6.01
-8.27
-7.64
-4.56
-0.41
3.27
5.43
5.82
5.11
4.79
6.43
10.93
17.91
25.88
32.95
37.42
37.94
33.79
25.22
13.68
1.68
-7.86
-12.20
-9.73
0.07
15.40
30.30
37.20
31.73
15.43
-5.75
-25.15
-38.58
-45.37
-47.61
-47.91
-47.69
-46.71
-44.05
-39.48
-33.78
-28.26
-24.04
-22.34
-22.46
-23.20
-23.24
-21.61
-18.24
-13.88
-9.75
-6.81
-5.42
-5.10
-4.86
-3.64
-0.73
3.55
7.89
10.53
10.21
6.51
0.44
-6.15
-11.17
-12.80
-10.22
-3.82
5.14
15.17
24.80
32.90
38.31
38.45
31.78
19.31
4.51
-8.59
-17.34
-21.01
-19.98
-15.09
-6.97
4.23
18.16
33.47
47.71
58.13
62.71
61.38
55.78
48.56
42.32
38.45
36.54
34.92
32.36
27.31
19.82
10.92
1.94
-6.05
-12.56
-17.72
-21.90
-25.02
-26.87
-27.11
-25.74
-23.31
-20.85
-18.81
-17.27
-15.88
-14.19
-12.10
-9.65
-7.06
-4.31
-1.02
3.38
9.11
15.52
21.21
24.55
24.60
21.55
16.63
11.44
6.97
3.73
1.87
0.92
-0.22
-2.94
-8.42
-17.11
-28.39
-40.49
-50.83
-57.13
-58.15
-54.10
-46.43
-37.20
-28.25
-20.59
-14.77
-9.84
-5.32
-1.54
0.65
0.27
-3.07
-8.91
-15.82
-21.88
-25.30
-25.39
-22.75
-18.96
-15.89
-14.94
-16.60
-20.23
-24.83
-29.23
-32.55
-34.25
-34.23
-32.86
-30.91
-29.22
-28.29
-27.73
-26.58
-23.65
-17.90
-8.80
3.38
17.45
31.72
44.47
54.97
63.24
70.23
77.55
86.89
99.10
113.57
128.10
139.64
145.57
144.01
134.44
118.03
97.19
74.86
53.64
35.14
17.55
1.24
-12.71
-23.53
-31.53
-37.84
-43.56
-49.29
-55.35
-61.19
-65.26
-66.47
-64.65
-60.48
-55.39
-50.85
-47.79
-47.20
-49.31
-53.05
-56.89
-59.25
-59.02
-55.85
-49.79
-41.64
-32.70
-24.12
-16.78
-11.50
-8.89
-8.98
-10.73
-11.52
-8.85
-1.45
10.24
24.28
38.04
49.33
57.24
59.92
57.58
51.54
43.55
34.76
25.71
17.40
11.84
11.29
16.86
29.07
45.29
61.48
73.95
80.38
80.44
75.20
65.94
50.25
29.61
6.49
-16.34
-36.16
-51.11
-60.32
-64.11
-63.76
-60.99
-56.64
-51.59
-47.46
-43.95
-40.68
-37.15
-32.99
-28.09
-22.71
-16.90
-11.24
-6.38
-2.63
-0.19
1.05
1.28
0.94
0.27
-0.31
-0.67
-0.89
-0.94
-0.97
-1.02
-1.07
-1.11
-1.16
-1.21
-1.37
-1.78
-2.43
-3.34
-4.42
-5.54
-6.59
-7.51
-8.27
-8.90
-9.44
-9.90
-10.20
-10.19
-9.69
-8.50
-6.55
-3.96
-0.91
2.30
5.40
8.15
10.40
12.10
13.29
14.15
14.92
15.89
17.24
18.90
20.50
21.31
20.51
17.43
11.89
4.28
-4.43
-13.02
-20.37
-25.71
-28.77
-29.69
-28.84
-26.74
-23.86
-20.62
-17.29
-14.03
-10.80
-7.45
-3.87
0.02
4.11
8.14
11.80
14.78
16.90
18.18
18.76
18.91
18.81
18.55
18.07
17.26
16.03
14.37
12.38
10.18
7.90
5.64
3.55
1.74
0.32
-0.68
-1.38
-1.96
-2.65
-3.60
-4.83
-6.22
-7.60
-8.80
-9.66
-10.08
-9.96
-9.27
-8.05
-6.45
-4.65
-2.92
-1.46
-0.41
0.20
0.40
0.30
0.06
-0.19
-0.37
-0.45
-0.47
-0.51
-0.64
-0.91
-1.32
-1.81
-2.34
-2.83
-3.26
-3.61
-3.89
-4.11
-4.32
-4.51
-4.70
-4.82
-4.82
-4.59
-4.03
-3.08
-1.74
-0.10
1.69
3.46
5.07
6.41
7.47
8.26
8.80
9.11
9.14
8.84
8.20
7.29
6.24
5.19
4.24
3.46
2.82
2.29
1.85
1.47
1.12
0.71
0.11
-0.78
-2.00
-3.42
-4.81
-5.89
-6.49
-6.53
-6.05
-5.09
-3.74
-2.07
-0.20
1.71
3.50
5.02
6.23
7.16
7.88
8.42
8.73
8.74
8.42
7.81
7.04
6.25
5.52
4.83
4.13
3.30
2.34
1.26
0.19
-0.76
-1.51
-2.06
-2.51
-3.01
-3.66
-4.50
-5.44
-6.36
-7.14
-7.68
-7.98
-8.04
-7.80
-7.20
-6.16
-4.70
-2.93
-1.03
0.82
2.51
4.00
5.28
6.32
7.03
7.31
7.14
6.60
5.86
5.11
4.44
3.86
3.29
2.71
2.18
1.82
1.74
1.89
2.13
2.23
2.02
1.46
0.68
-0.12
-0.80
-1.30
-1.70
-2.13
-2.66
-3.31
-3.97
-4.56
-5.00
-5.33
-5.68
-6.21
-7.03
-8.10
-9.20
-10.05
-10.38
-10.10
-9.27
-8.09
-6.72
-5.24
-3.62
-1.80
0.21
2.24
4.08
5.50
6.38
6.77
6.80
6.65
6.40
6.09
5.68
5.15
4.56
4.03
3.65
3.44
3.35
3.17
2.72
1.90
0.76
-0.52
-1.68
-2.53
-3.03
-3.28
-3.51
-3.92
-4.60
-5.51
-6.49
-7.47
-8.42
-9.45
-10.64
-12.02
-13.50
-14.90
-16.06
-16.90
-17.47
-17.85
-18.13
-18.29
-18.26
-17.97
-17.44
-16.75
-16.07
-15.56
-15.32
-15.42
-15.89
-16.71
-17.82
-19.12
-20.45
-21.64
-22.56
-23.07
-23.11
-22.61
-21.53
-19.88
-17.75
-15.31
-12.75
-10.21
-7.74
-5.29
-2.75
-0.10
2.57
5.08
7.23
8.92
10.20
11.15
11.88
12.35
12.45
12.04
11.12
9.89
8.67
7.79
7.41
7.44
7.61
7.63
7.31
6.66
5.90
5.29
5.05
5.28
5.98
7.06
8.46
10.19
12.36
15.06
18.24
21.62
24.73
26.97
27.87
27.29
25.55
23.30
21.37
20.50
21.19
23.59
27.55
32.58
37.81
42.14
44.37
43.55
39.34
32.21
23.44
14.71
7.65
3.33
1.97
3.02
5.39
7.88
9.53
9.82
8.73
6.59
3.91
1.18
-1.28
-3.40
-5.22
-6.90
-8.49
-10.03
-11.41
-12.56
-13.54
-14.50
-15.60
-16.86
-18.18
-19.36
-20.25
-20.79
-21.05
-21.24
-21.57
-22.16
-22.97
-23.91
-24.92
-26.03
-27.14
-28.13
-28.85
-29.15
-28.81
-27.67
-25.65
-22.93
-19.82
-16.30
-12.35
-8.13
-4.03
-0.40
2.53
4.70
6.11
6.83
7.89
10.18
13.96
18.72
23.74
28.60
33.30
38.04
43.03
49.68
58.72
69.39
79.45
86.46
89.03
87.22
82.35
76.45
73.38
76.01
84.90
98.20
113.23
127.86
140.84
151.37
147.58
122.80
79.81
30.50
-12.38
-42.01
-58.10
-64.41
-66.15
-67.87
-70.57
-73.69
-76.56
-79.25
-82.00
-84.42
-85.59
-84.69
-81.36
-74.63
-64.48
-52.15
-39.77
-29.29
-21.71
-16.83
-14.77
-15.30
-17.03
-18.53
-18.94
-18.27
-17.04
-15.75
-14.80
-14.39
-14.52
-14.86
-15.24
-15.76
-16.63
-17.95
-18.58
-17.77
-15.20
-11.30
-7.09
-3.76
-2.09
-2.23
-3.64
-5.48
-7.45
-9.23
-10.76
-12.23
-13.87
-15.73
-17.59
-18.98
-19.28
-18.10
-15.32
-11.29
-6.80
-2.78
-0.02
1.13
0.86
-0.17
-1.17
-1.38
-0.42
1.69
4.59
7.76
10.69
12.97
14.42
15.05
15.09
14.91
14.88
15.29
16.28
17.77
19.52
21.18
22.40
22.88
22.36
20.69
17.87
14.14
9.93
5.78
2.15
-0.68
-2.67
-3.92
-4.63
-5.02
-5.35
-5.82
-6.50
-7.31
-7.95
-8.15
-7.79
-7.10
-6.50
-6.45
-7.12
-8.23
-9.23
-9.49
-8.62
-6.60
-3.68
-0.18
3.62
7.53
11.33
14.66
17.01
17.93
17.19
14.92
11.60
7.90
4.35
1.27
-1.32
-3.55
-5.50
-7.16
-8.37
-8.96
-8.88
-8.33
-7.76
-7.79
-9.03
-11.81
-15.98
-20.82
-25.21
-28.08
-28.76
-27.22
-23.98
-19.80
-15.35
-11.27
-8.21
-6.91
-8.04
-11.68
-16.95
-22.13
-25.23
-24.90
-21.07
-14.97
-8.44
-3.03
0.73
3.33
5.69
8.52
11.89
15.23
17.84
19.28
19.56
19.14
18.49
17.89
17.36
16.76
15.96
15.02
14.23
14.06
15.01
17.29
20.57
23.97
26.30
26.52
24.21
19.72
13.99
8.17
3.14
-0.80
-3.84
-6.47
-9.08
-11.73
-14.11
-15.75
-16.25
-15.48
-13.53
-10.66
-7.25
-3.86
-1.02
0.81
1.39
0.88
-0.15
-0.78
-0.08
2.50
6.65
11.32
15.05
16.48
14.77
9.86
2.47
-6.09
-14.32
-21.18
-25.91
-28.03
-27.48
-24.72
-20.60
-16.13
-12.17
-9.28
-8.25
-9.30
-11.92
-15.07
-17.91
-20.03
-21.41
-22.31
-23.01
-24.49
-27.05
-29.84
-31.44
-30.94
-28.40
-24.62
-20.66
-17.46
-16.77
-19.50
-25.26
-32.74
-40.72
-48.33
-54.65
-58.53
-51.94
-31.68
-2.18
27.97
52.49
69.24
78.69
82.50
82.63
80.65
76.24
68.82
58.57
46.46
33.68
21.26
10.09
0.84
-6.19
-11.88
-16.95
-21.35
-24.57
-26.32
-26.79
-26.41
-25.55
-24.44
-23.65
-23.27
-22.76
-21.35
-18.71
-15.16
-11.73
-8.76
-6.47
-4.91
-3.63
-1.86
0.96
4.82
9.09
12.87
15.50
16.65
16.44
15.23
13.44
11.35
8.99
6.37
3.61
1.11
-0.71
-1.45
-1.01
0.36
2.19
3.89
5.20
6.06
6.62
7.11
7.77
8.73
10.15
12.18
14.43
16.82
19.20
21.47
23.55
25.47
27.31
29.17
31.03
32.71
34.05
34.90
35.17
34.88
34.04
32.55
30.27
27.00
22.69
17.50
11.69
5.53
-0.90
-7.67
-15.07
-23.40
-32.86
-43.43
-54.66
-65.75
-75.61
-83.11
-87.39
-88.23
-86.12
-82.14
-77.57
-73.38
-69.96
-67.09
-64.11
-60.32
-55.25
-48.79
-41.15
-32.70
-23.88
-15.12
-6.88
0.41
6.33
10.65
13.36
14.74
15.18
15.06
14.60
13.78
12.47
10.51
7.89
4.78
1.49
-1.68
-4.51
-6.89
-8.82
-10.32
-11.42
-12.16
-12.59
-12.77
-12.71
-12.34
-11.57
-10.35
-8.74
-6.94
-5.23
-3.84
-2.84
-2.09
-1.24
0.12
2.33
5.56
9.84
15.01
20.86
27.17
33.81
40.72
47.86
55.20
62.56
69.62
75.94
81.01
84.41
85.88
85.40
83.19
79.57
74.86
69.30
63.07
56.35
49.47
42.91
37.20
32.76
29.71
27.87
26.85
26.25
25.85
25.56
25.32
25.08
24.72
24.24
23.73
23.34
23.21
23.38
23.81
24.32
24.75
24.97
25.00
24.89
24.65
24.15
23.24
21.65
19.03
14.99
9.26
2.03
-6.19
-14.75
-23.02
-30.26
-36.13
-40.79
-44.80
-48.90
-53.13
-57.03
-59.90
-60.92
-58.97
-53.66
-45.80
-37.30
-30.57
-26.60
-25.28
-25.72
-26.51
-25.48
-21.18
-13.63
-4.23
4.75
12.66
19.48
25.24
29.98
34.81
40.77
48.29
57.26
66.92
78.20
91.59
106.39
113.16
104.87
81.65
51.21
27.58
11.39
0.86
-5.99
-12.02
-17.74
-21.57
-21.91
-18.76
-14.12
-11.67
-13.10
-18.90
-28.27
-39.16
-48.03
-51.68
-49.52
-43.77
-37.89
-32.91
-28.73
-26.17
-24.66
-23.60
-22.78
-22.38
-22.62
-23.92
-24.47
-23.44
-21.18
-18.66
-17.05
-17.07
-18.69
-21.07
-23.20
-23.96
-23.23
-21.77
-20.35
-19.50
-19.16
-18.88
-18.19
-16.95
-15.22
-13.58
-12.55
-12.32
-12.73
-13.37
-13.81
-13.74
-13.23
-12.65
-12.64
-13.69
-15.82
-18.63
-21.44
-23.62
-24.82
-25.16
-25.02
-24.92
-25.19
-25.84
-26.70
-27.51
-28.01
-28.08
-27.65
-26.73
-25.42
-23.80
-22.00
-20.09
-18.11
-16.02
-13.75
-11.26
-8.54
-5.68
-2.77
0.03
2.62
4.87
6.72
8.13
9.12
9.75
10.18
10.58
11.08
11.83
12.87
14.17
15.60
16.98
18.09
18.78
18.98
18.72
18.10
17.22
16.13
14.87
13.47
12.02
10.66
9.58
8.93
8.80
9.18
9.98
11.00
11.98
12.62
12.65
11.87
10.27
8.08
5.71
3.56
1.93
0.86
0.15
-0.49
-1.31
-2.36
-3.51
-4.50
-5.15
-5.44
-5.51
-5.53
-5.56
-5.44
-4.84
-3.53
-1.54
0.77
2.84
4.21
4.78
4.84
4.96
5.65
7.12
9.26
11.70
14.06
16.07
17.64
18.76
19.44
19.70
19.59
19.20
18.72
18.31
18.10
18.11
18.25
18.39
18.33
17.90
16.94
15.36
13.18
10.51
7.55
4.56
1.71
-0.89
-3.29
-5.62
-8.03
-10.60
-13.27
-15.93
-18.41
-20.69
-22.85
-25.09
-27.55
-30.18
-32.72
-34.76
-35.93
-36.07
-35.31
-33.98
-32.50
-31.17
-30.12
-29.32
-28.68
-28.15
-27.71
-27.39
-27.20
-27.14
-27.14
-27.13
-27.04
-26.78
-26.26
-25.39
-24.09
-22.33
-20.23
-18.01
-15.97
-14.35
-13.26
-12.62
-12.19
-11.70
-10.94
-9.89
-8.63
-7.33
-6.10
-4.97
-3.84
-2.59
-1.08
0.81
3.19
6.11
9.59
13.58
17.92
22.39
26.72
30.63
33.89
36.28
37.65
37.95
37.25
35.80
33.94
32.01
30.23
28.66
27.18
25.66
24.01
22.25
20.51
18.91
17.48
16.13
14.71
13.12
11.43
9.83
8.51
7.60
7.03
6.59
6.05
5.27
4.30
3.37
2.77
2.72
3.33
4.59
6.40
8.60
11.06
13.63
16.19
18.63
20.87
22.86
24.53
25.84
26.76
27.31
27.56
27.62
27.61
27.57
27.43
27.07
26.39
25.37
24.12
22.83
21.70
20.76
19.91
18.87
17.37
15.21
12.29
8.64
4.26
-0.80
-6.46
-12.43
-18.22
-23.22
-26.88
-28.99
-29.66
-29.27
-28.22
-26.68
-24.57
-21.66
-17.86
-13.38
-8.76
-4.60
-1.36
0.86
2.36
3.54
4.72
5.95
7.00
7.62
7.71
7.40
7.02
6.84
6.89
6.91
6.48
5.28
3.20
0.47
-2.51
-5.31
-7.67
-9.56
-11.10
-12.52
-13.99
-15.58
-17.18
-18.61
-19.63
-20.00
-19.59
-18.29
-16.13
-13.18
-9.60
-5.63
-1.60
2.16
5.35
7.85
9.69
11.01
12.02
12.82
13.40
13.64
13.46
12.86
11.97
10.97
10.04
9.29
8.75
8.33
7.94
7.45
6.78
5.86
4.72
3.47
2.26
1.26
0.58
0.21
0.06
-0.07
-0.34
-0.87
-1.67
-2.67
-3.71
-4.61
-5.16
-5.21
-4.73
-3.77
-2.50
-1.09
0.31
1.65
2.95
4.30
5.78
7.42
9.22
11.09
12.87
14.39
15.49
16.08
16.23
16.04
15.70
15.32
14.91
14.41
13.78
13.00
12.15
11.33
10.55
9.78
8.86
7.65
6.04
4.04
1.72
-0.77
-3.34
-5.95
-8.63
-11.40
-14.29
-17.24
-20.16
-22.88
-25.21
-26.89
-27.68
-27.37
-25.87
-23.28
-19.84
-15.90
-11.82
-7.87
-4.19
-0.84
2.14
4.72
6.80
8.31
9.18
9.39
9.00
8.13
6.90
5.46
3.92
2.35
0.75
-0.96
-2.89
-5.15
-7.82
-10.86
-14.12
-17.34
-20.26
-22.69
-24.53
-25.82
-26.68
-27.19
-27.39
-27.25
-26.70
-25.74
-24.45
-22.95
-21.36
-19.72
-18.10
-16.51
-15.04
-13.85
-13.20
-13.33
-14.38
-16.32
-18.95
-22.02
-25.22
-28.26
-30.88
-32.88
-34.11
-34.61
-34.47
-34.01
-33.67
-33.74
-34.25
-34.94
-35.44
-35.44
-34.86
-33.53
-31.45
-28.59
-24.62
-18.99
-11.28
-1.49
9.84
21.85
34.09
45.94
56.79
66.24
74.33
81.36
87.77
94.02
100.33
107.32
114.70
121.58
127.41
132.47
137.50
142.94
148.40
152.52
154.29
152.14
144.66
131.54
113.91
93.75
73.00
53.44
30.09
3.29
-23.64
-47.74
-68.67
-87.18
-103.19
-116.03
-124.91
-129.50
-129.83
-128.01
-127.29
-130.69
-137.87
-145.46
-149.94
-148.21
-138.89
-121.67
-97.58
-68.08
-35.04
-0.91
30.51
54.51
67.14
66.76
55.34
37.35
18.27
3.01
-5.13
-5.29
1.09
11.36
22.47
31.83
37.38
38.59
35.58
30.11
25.43
25.12
31.56
43.93
57.78
65.30
60.19
40.74
11.60
-18.22
-39.82
-48.49
-45.71
-37.38
-29.93
-26.77
-27.29
-28.33
-27.00
-22.88
-18.13
-16.14
-19.23
-27.22
-37.38
-45.86
-49.37
-46.90
-40.24
-31.94
-25.49
-23.27
-26.06
-33.19
-43.11
-53.71
-61.96
-65.21
-60.71
-46.86
-24.11
4.32
33.09
56.43
70.21
73.38
68.02
58.20
47.72
39.08
32.99
29.11
27.01
26.70
27.99
29.74
30.03
27.01
20.59
12.52
5.53
1.56
-0.38
-3.07
-8.48
-15.20
-18.62
-13.84
0.42
20.13
37.88
47.19
46.30
38.73
30.34
25.03
22.26
18.10
8.85
-5.76
-22.24
-35.15
-40.45
-37.60
-29.39
-19.93
-12.67
-9.39
-9.94
-13.28
-17.85
-21.93
-24.09
-23.27
-19.29
-13.10
-6.60
-1.88
-0.27
-1.48
-3.66
-4.26
-1.45
4.78
12.41
18.39
20.28
17.47
11.56
5.36
1.40
0.77
2.85
5.94
8.38
9.28
8.67
7.06
5.00
2.90
1.25
0.73
2.05
5.45
10.32
14.76
16.60
14.38
8.08
-0.92
-10.59
-19.25
-26.14
-31.43
-35.60
-38.80
-40.69
-40.73
-38.71
-35.19
-31.22
-27.87
-25.86
-24.60
-23.16
-20.70
-16.90
-12.16
-7.20
-2.64
1.40
5.09
8.86
12.88
16.95
20.58
23.29
24.78
25.07
24.41
23.03
21.20
19.02
16.62
14.32
12.58
11.96
12.75
14.78
17.36
19.61
20.75
20.55
19.34
17.78
16.41
15.32
14.21
12.39
9.49
5.60
1.35
-2.44
-5.12
-6.49
-6.79
-6.55
-6.24
-6.07
-5.94
-5.62
-4.96
-4.03
-3.09
-2.50
-2.48
-3.04
-3.95
-4.88
-5.56
-5.87
-5.85
-5.64
-5.35
-5.03
-4.63
-4.10
-3.45
-2.82
-2.43
-2.45
-2.92
-3.63
-4.23
-4.41
-4.07
-3.38
-2.64
-2.09
-1.80
-1.61
-1.29
-0.68
0.20
1.22
2.18
2.93
3.44
3.76
3.95
4.10
4.27
4.44
4.58
4.61
4.50
4.29
4.11
4.10
4.24
4.50
4.74
4.77
4.47
3.87
3.09
2.30
1.60
1.02
0.51
-0.06
-0.77
-1.68
-2.80
-4.04
-5.28
-6.35
-7.13
-7.49
-7.39
-6.78
-5.65
-4.01
-1.93
0.41
2.74
4.77
6.29
7.27
7.83
8.16
8.41
8.60
8.66
8.44
7.89
7.07
6.09
5.07
4.06
3.07
2.07
1.09
0.25
-0.30
-0.46
-0.29
0.01
0.21
0.15
-0.20
-0.69
-1.19
-1.59
-1.94
-2.29
-2.63
-2.83
-2.64
-1.92
-0.68
0.82
2.25
3.38
4.14
4.68
5.14
5.59
5.93
5.98
5.57
4.71
3.53
2.26
1.10
0.13
-0.60
-1.13
-1.48
-1.71
-1.85
-1.98
-2.16
-2.49
-3.03
-3.80
-4.74
-5.76
-6.75
-7.62
-8.33
-8.79
-8.92
-8.61
-7.78
-6.44
-4.72
-2.83
-0.96
0.72
2.17
3.35
4.21
4.70
4.71
4.20
3.31
2.20
1.10
0.16
-0.61
-1.26
-1.86
-2.42
-2.87
-3.10
-3.06
-2.81
-2.49
-2.29
-2.34
-2.68
-3.22
-3.86
-4.50
-5.05
-5.41
-5.43
-4.96
-3.89
-2.25
-0.24
1.83
3.63
4.94
5.72
6.04
6.04
5.82
5.42
4.78
3.87
2.71
1.41
0.20
-0.71
-1.19
-1.27
-1.13
-1.04
-1.23
-1.76
-2.53
-3.39
-4.19
-4.94
-5.75
-6.72
-7.84
-8.93
-9.73
-10.02
-9.69
-8.76
-7.36
-5.61
-3.67
-1.65
0.29
2.03
3.50
4.71
5.75
6.64
7.32
7.64
7.48
6.86
5.91
4.92
4.06
3.41
2.88
2.31
1.63
0.84
0.10
-0.47
-0.82
-1.04
-1.30
-1.77
-2.53
-3.53
-4.64
-5.66
-6.43
-6.78
-6.63
-5.94
-4.72
-3.03
-1.01
1.16
3.26
5.09
6.47
7.33
7.71
7.69
7.41
6.99
6.55
6.12
5.73
5.34
4.94
4.54
4.20
3.96
3.80
3.68
3.50
3.20
2.76
2.17
1.45
0.53
-0.69
-2.27
-4.17
-6.19
-7.94
-9.01
-9.12
-8.22
-6.54
-4.45
-2.33
-0.42
1.16
2.43
3.43
4.15
4.54
4.57
4.25
3.66
2.94
2.21
1.52
0.87
0.20
-0.53
-1.32
-2.12
-2.86
-3.45
-3.83
-4.00
-4.02
-4.03
-4.23
-4.82
-5.91
-7.44
-9.14
-10.58
-11.33
-11.08
-9.80
-7.72
-5.28
-2.90
-0.90
0.62
1.69
2.40
2.81
2.89
2.59
1.92
0.98
-0.02
-0.87
-1.43
-1.70
-1.79
-1.85
-1.98
-2.20
-2.47
-2.73
-2.99
-3.23
-3.49
-3.78
-4.15
-4.68
-5.47
-6.52
-7.73
-8.82
-9.40
-9.19
-8.09
-6.28
-4.10
-1.94
-0.03
1.56
2.93
4.18
5.42
6.62
7.65
8.36
8.64
8.47
7.96
7.27
6.56
5.88
5.23
4.58
3.96
3.52
3.39
3.65
4.20
4.75
5.00
4.75
3.98
2.79
1.32
-0.39
-2.30
-4.35
-6.29
-7.72
-8.21
-7.53
-5.75
-3.23
-0.49
2.03
4.09
5.66
6.86
7.81
8.51
8.86
8.71
7.92
6.50
4.55
2.37
0.32
-1.26
-2.17
-2.38
-2.09
-1.62
-1.28
-1.27
-1.67
-2.44
-3.49
-4.75
-6.19
-7.77
-9.39
-10.92
-12.19
-12.99
-13.21
-12.75
-11.67
-10.03
-7.98
-5.70
-3.34
-1.04
1.09
3.00
4.60
5.83
6.59
6.86
6.63
5.97
5.00
3.85
2.67
1.61
0.72
0.00
-0.67
-1.43
-2.39
-3.51
-4.64
-5.56
-6.20
-6.65
-7.17
-8.07
-9.46
-11.24
-13.08
-14.61
-15.54
-15.74
-15.16
-13.81
-11.74
-8.99
-5.76
-2.32
1.00
3.94
6.39
8.40
10.08
11.51
12.75
13.82
14.63
14.96
14.57
13.30
11.24
8.75
6.35
4.55
3.55
3.12
2.67
1.64
-0.19
-2.58
-5.10
-7.36
-9.23
-10.79
-12.28
-14.03
-16.05
-17.86
-18.78
-18.31
-16.31
-13.05
-9.04
-4.94
-1.83
-0.33
-0.14
-0.40
-0.25
0.72
2.44
4.38
5.80
5.31
2.31
-2.45
-7.43
-11.35
-13.73
-14.73
-14.87
-14.76
-15.94
-19.40
-24.99
-31.91
-39.27
-45.94
-50.10
-49.34
-36.05
-8.76
25.16
54.64
72.39
77.12
71.60
60.22
47.16
35.02
23.72
12.60
2.04
-6.73
-12.37
-14.64
-14.48
-13.58
-13.43
-15.25
-19.39
-24.18
-28.30
-31.45
-35.16
-41.39
-50.54
-60.11
-65.49
-61.54
-45.06
-17.13
17.58
51.81
78.75
94.40
98.31
92.29
79.13
61.86
41.06
20.70
5.43
-1.01
2.83
15.43
32.71
49.37
60.99
62.05
51.72
34.11
15.90
1.81
-7.14
-12.38
-15.82
-18.38
-19.47
-16.70
-8.68
3.21
14.94
21.87
21.15
13.10
0.86
-11.48
-20.36
-24.64
-25.35
-24.04
-21.46
-16.99
-10.15
-1.72
6.10
11.07
11.84
8.62
3.17
-2.28
-5.97
-7.60
-7.70
-7.10
-6.20
-4.98
-3.41
-1.84
-0.96
-1.49
-3.81
-7.74
-12.70
-17.71
-21.68
-23.64
-22.99
-19.63
-14.02
-7.23
-0.63
4.47
7.29
7.85
6.84
5.33
4.37
4.62
6.13
8.46
10.77
12.24
12.41
11.35
9.53
7.68
6.49
6.44
7.83
10.74
14.41
17.81
19.68
18.99
15.49
9.90
3.86
-0.49
-1.32
2.14
9.18
17.60
24.47
27.13
24.13
15.94
4.64
-6.97
-16.52
-22.89
-26.22
-27.24
-26.58
-24.53
-21.23
-17.31
-14.26
-13.85
-17.32
-24.32
-32.91
-40.24
-43.92
-42.86
-37.78
-31.12
-24.97
-21.02
-19.73
-20.16
-20.43
-18.51
-12.69
-2.37
11.71
27.80
42.95
53.87
58.04
55.24
46.40
34.44
23.05
15.33
12.70
14.10
16.71
17.40
14.36
7.45
-0.85
-7.35
-10.80
-11.58
-11.38
-12.04
-14.24
-17.10
-18.90
-17.93
-13.62
-7.10
-0.40
4.59
7.01
7.31
6.85
6.93
8.34
11.19
15.26
19.98
24.67
28.12
29.17
27.68
25.15
24.43
28.02
36.01
45.23
50.44
46.68
32.66
11.73
-9.53
-24.56
-29.80
-26.01
-17.03
-5.86
4.29
11.61
15.71
16.95
15.88
13.17
9.59
6.05
3.35
1.70
1.10
1.33
2.05
2.84
3.22
2.64
0.70
-2.55
-6.76
-11.05
-14.42
-16.26
-16.72
-16.70
-17.44
-19.97
-24.61
-30.96
-37.80
-43.66
-47.38
-48.50
-47.31
-44.62
-41.36
-38.23
-35.57
-33.32
-31.22
-29.09
-26.87
-24.74
-22.93
-21.69
-21.09
-21.01
-21.15
-21.10
-20.52
-19.28
-17.55
-15.69
-14.10
-13.04
-12.53
-12.41
-12.50
-12.70
-13.05
-13.61
-14.35
-15.04
-15.29
-14.70
-13.00
-10.23
-6.64
-2.64
1.37
5.12
8.49
11.49
14.19
16.72
19.27
22.04
25.31
29.23
33.75
38.48
42.71
45.58
46.36
44.78
41.14
36.27
31.25
27.12
24.51
23.50
23.72
24.46
24.97
24.63
23.13
20.44
16.89
13.00
9.38
6.57
4.85
4.21
4.34
4.80
5.17
5.27
5.15
5.02
5.06
5.29
5.47
5.19
4.10
2.07
-0.66
-3.62
-6.21
-8.05
-9.13
-9.84
-10.71
-12.13
-14.08
-16.11
-17.56
-17.91
-17.10
-15.63
-14.32
-14.06
-15.39
-18.29
-22.20
-26.18
-29.25
-30.68
-30.13
-27.59
-23.37
-17.95
-11.99
-6.22
-1.24
2.61
5.47
8.01
11.25
16.13
22.94
30.90
38.22
42.69
42.50
37.02
27.23
15.52
4.64
-3.50
-8.50
-11.32
-13.41
-15.88
-19.08
-22.67
-25.79
-27.90
-29.29
-30.90
-33.62
-37.53
-41.75
-44.89
-45.66
-42.81
-35.97
-26.05
-14.88
-4.16
5.37
13.91
21.94
29.44
36.49
42.97
48.63
53.74
59.45
67.59
79.45
94.71
105.70
104.67
88.73
62.56
34.91
13.01
0.22
-3.91
-2.24
1.61
5.52
9.62
13.76
17.43
19.64
19.46
16.35
10.33
1.81
-7.77
-16.76
-23.85
-28.20
-29.27
-27.11
-22.50
-16.87
-12.20
-9.94
-10.94
-15.16
-21.64
-28.56
-33.79
-35.35
-32.24
-25.28
-15.30
-5.57
-0.44
-2.26
-10.37
-22.47
-36.13
-49.11
-59.40
-66.94
-70.73
-70.15
-65.68
-58.98
-51.95
-45.41
-38.25
-28.65
-14.35
4.02
23.27
39.42
49.50
53.04
52.09
50.47
51.07
54.62
59.53
63.58
65.53
65.74
65.82
64.87
62.51
58.53
52.43
43.05
29.57
12.66
-5.53
-22.23
-35.23
-43.20
-46.37
-45.96
-43.55
-40.24
-36.53
-32.83
-29.80
-28.27
-28.53
-30.81
-34.08
-37.20
-39.15
-39.31
-37.57
-34.24
-29.82
-24.64
-19.15
-13.93
-9.77
-7.20
-6.31
-6.67
-7.65
-8.66
-9.39
-9.96
-10.76
-12.04
-13.83
-15.84
-17.46
-18.05
-17.15
-14.55
-10.44
-5.23
0.55
6.36
11.86
16.78
20.97
24.34
26.96
28.95
30.49
31.53
31.81
30.93
28.64
25.09
20.89
16.84
13.60
11.31
9.59
7.80
5.52
2.87
0.36
-1.38
-2.09
-2.04
-1.82
-2.04
-2.85
-3.86
-4.30
-3.43
-0.94
2.86
7.20
11.16
14.11
15.83
16.56
16.71
16.57
16.18
15.36
13.93
11.88
9.50
7.16
5.18
3.60
2.19
0.58
-1.48
-3.96
-6.60
-9.07
-11.16
-12.90
-14.48
-16.04
-17.56
-18.77
-19.37
-19.13
-18.05
-16.32
-14.16
-11.72
-9.05
-6.07
-2.75
0.83
4.43
7.69
10.20
11.64
11.87
11.01
9.43
7.59
5.95
4.74
3.98
3.47
2.92
2.12
0.93
-0.69
-2.70
-5.05
-7.68
-10.49
-13.32
-15.93
-18.05
-19.40
-19.72
-18.92
-17.01
-14.18
-10.71
-6.97
-3.33
-0.11
2.48
4.38
5.64
6.40
6.80
6.91
6.73
6.28
5.58
4.71
3.78
2.85
1.91
0.94
-0.08
-1.08
-1.98
-2.69
-3.23
-3.67
-4.10
-4.46
-4.59
-4.23
-3.21
-1.53
0.62
2.98
5.31
7.51
9.54
11.36
12.84
13.79
14.05
13.61
12.64
11.39
10.10
8.88
7.73
6.57
5.36
4.13
2.97
1.94
1.00
0.02
-1.15
-2.59
-4.20
-5.72
-6.82
-7.21
-6.75
-5.42
-3.36
-0.76
2.18
5.18
7.94
10.21
11.80
12.70
13.06
13.10
12.95
12.60
11.95
10.88
9.43
7.76
6.11
4.66
3.43
2.28
1.05
-0.35
-1.89
-3.38
-4.69
-5.68
-6.30
-6.48
-6.11
-5.05
-3.27
-0.91
1.68
4.07
5.99
7.38
8.41
9.27
10.02
10.48
10.36
9.50
7.94
5.94
3.81
1.72
-0.32
-2.37
-4.42
-6.34
-7.91
-8.99
-9.63
-10.05
-10.56
-11.40
-12.62
-14.10
-15.55
-16.62
-17.00
-16.53
-15.25
-13.33
-11.02
-8.54
-5.95
-3.27
-0.48
2.32
4.89
6.93
8.23
8.75
8.68
8.34
8.05
7.98
8.09
8.21
8.13
7.73
7.03
6.15
5.28
4.53
3.90
3.29
2.57
1.72
0.86
0.25
0.20
0.92
2.45
4.63
7.11
9.54
11.62
13.18
14.21
14.77
14.93
14.67
13.93
12.66
10.85
8.60
6.08
3.45
0.86
-1.63
-3.94
-6.02
-7.79
-9.16
-10.09
-10.62
-10.95
-11.36
-12.11
-13.33
-14.88
-16.41
-17.47
-17.66
-16.89
-15.37
-13.52
-11.86
-10.74
-10.28
-10.41
-11.02
-12.04
-13.51
-15.44
-17.77
-20.27
-22.53
-24.03
-24.19
-22.48
-18.53
-12.28
-4.00
5.67
15.87
25.76
34.70
42.35
48.70
53.91
58.28
62.11
65.78
69.61
73.84
78.42
82.89
86.44
88.12
87.20
83.41
77.05
68.79
59.42
49.52
39.39
29.08
18.63
8.17
-1.98
-11.42
-19.75
-26.78
-32.47
-36.96
-40.47
-43.25
-45.43
-47.08
-48.17
-48.67
-48.58
-47.99
-47.02
-45.70
-43.96
-41.62
-38.52
-34.66
-30.28
-25.80
-21.70
-18.30
-15.69
-13.74
-12.25
-10.98
-9.83
-8.75
-7.79
-7.01
-6.47
-6.25
-6.39
-6.84
-7.50
-8.24
-8.92
-9.46
-9.85
-10.09
-10.23
-10.34
-10.50
-10.83
-11.42
-12.30
-13.34
-14.29
-14.85
-14.73
-13.78
-12.08
-9.86
-7.48
-5.24
-3.33
-1.79
-0.52
0.58
1.63
2.67
3.67
4.55
5.20
5.51
5.48
5.19
4.81
4.50
4.36
4.39
4.56
4.81
5.11
5.46
5.81
6.05
6.05
5.73
5.15
4.54
4.17
4.29
5.02
6.29
7.98
9.87
11.82
13.64
15.12
16.01
16.11
15.29
13.62
11.35
8.84
6.48
4.51
3.01
1.83
0.71
-0.60
-2.25
-4.19
-6.25
-8.18
-9.83
-11.15
-12.23
-13.22
-14.24
-15.40
-16.67
-17.96
-19.11
-19.92
-20.21
-19.82
-18.71
-16.95
-14.75
-12.38
-10.13
-8.21
-6.71
-5.65
-4.95
-4.50
-4.20
-3.99
-3.84
-3.74
-3.74
-3.86
-4.14
-4.57
-5.17
-5.90
-6.74
-7.64
-8.55
-9.44
-10.25
-10.97
-11.54
-11.90
-11.94
-11.58
-10.74
-9.40
-7.57
-5.32
-2.77
-0.09
2.54
4.86
6.69
7.95
8.65
8.97
9.08
9.12
9.09
8.94
8.54
7.84
6.88
5.76
4.66
3.72
2.99
2.44
1.94
1.34
0.55
-0.39
-1.27
-1.81
-1.72
-0.77
1.12
3.96
7.64
11.85
16.12
19.78
22.17
22.89
21.98
19.93
17.38
14.92
12.77
10.80
8.74
6.43
3.88
1.25
-1.35
-4.00
-6.83
-9.94
-13.24
-16.47
-19.27
-21.41
-22.87
-23.80
-24.42
-24.90
-25.31
-25.57
-25.55
-25.07
-23.94
-22.00
-19.20
-15.65
-11.66
-7.65
-4.06
-1.14
0.98
2.41
3.27
3.72
3.83
3.64
3.15
2.43
1.59
0.73
-0.06
-0.76
-1.36
-1.86
-2.23
-2.42
-2.40
-2.20
-1.94
-1.74
-1.65
-1.58
-1.27
-0.34
1.57
4.62
8.66
13.21
17.58
21.13
23.46
24.53
24.60
24.04
23.13
21.92
20.31
18.19
15.63
12.86
10.18
7.82
5.80
3.96
2.07
-0.01
-2.34
-4.88
-7.52
-10.10
-12.44
-14.32
-15.49
-15.77
-15.06
-13.40
-10.95
-8.03
-4.99
-2.23
-0.03
1.50
2.42
2.89
3.06
2.99
2.63
1.95
0.94
-0.29
-1.58
-2.82
-4.02
-5.20
-6.41
-7.61
-8.74
-9.75
-10.67
-11.58
-12.51
-13.32
-13.71
-13.36
-12.03
-9.71
-6.61
-3.04
0.67
4.25
7.52
10.30
12.46
13.88
14.55
14.57
14.11
13.31
12.28
11.04
9.59
7.94
6.17
4.39
2.69
1.11
-0.43
-2.05
-3.88
-5.90
-7.95
-9.68
-10.70
-10.70
-9.53
-7.27
-4.22
-0.73
2.83
6.21
9.25
11.86
13.99
15.56
16.54
16.91
16.71
16.04
14.99
13.66
12.06
10.20
8.16
6.05
4.05
2.29
0.76
-0.70
-2.37
-4.41
-6.74
-9.06
-10.88
-11.79
-11.56
-10.21
-7.95
-5.08
-1.95
1.11
3.81
5.91
7.28
7.95
8.02
7.64
6.92
5.88
4.48
2.74
0.75
-1.30
-3.18
-4.71
-5.77
-6.37
-6.63
-6.79
-7.15
-7.98
-9.37
-11.16
-12.93
-14.10
-14.12
-12.71
-9.91
-6.09
-1.71
2.72
6.88
10.52
13.47
15.62
16.81
16.98
16.18
14.57
12.38
9.84
7.13
4.35
1.56
-1.16
-3.72
-5.99
-7.91
-9.55
-11.04
-12.56
-14.20
-15.90
-17.45
-18.58
-19.01
-18.51
-16.93
-14.23
-10.51
-6.05
-1.35
3.03
6.53
8.86
10.08
10.52
10.64
10.73
10.84
10.75
10.17
8.90
7.00
4.74
2.50
0.52
-1.12
-2.57
-4.01
-5.58
-7.34
-9.25
-11.30
-13.45
-15.66
-17.71
-19.24
-19.82
-19.13
-17.14
-14.12
-10.53
-6.84
-3.34
-0.05
3.25
6.97
11.52
17.18
23.95
31.54
39.28
46.37
52.04
55.79
57.52
57.42
55.90
53.39
50.24
46.73
43.04
39.26
35.25
30.78
25.53
19.37
12.49
5.39
-1.22
-6.66
-10.48
-12.57
-13.03
-12.10
-10.03
-7.12
-3.74
-0.37
2.49
4.43
5.34
5.43
5.14
5.03
5.46
6.50
7.84
8.97
9.40
8.85
7.37
5.22
2.78
0.35
-1.86
-3.75
-5.24
-6.32
-7.05
-7.65
-8.42
-9.66
-11.45
-13.59
-15.64
-17.04
-17.38
-16.52
-14.59
-11.99
-9.14
-6.42
-4.06
-2.21
-0.93
-0.27
-0.19
-0.58
-1.27
-1.98
-2.49
-2.67
-2.57
-2.37
-2.28
-2.47
-2.96
-3.63
-4.30
-4.84
-5.20
-5.48
-5.84
-6.47
-7.51
-8.96
-10.70
-12.51
-14.10
-15.21
-15.68
-15.41
-14.41
-12.72
-10.45
-7.74
-4.75
-1.67
1.30
3.99
6.23
7.91
8.98
9.49
9.59
9.43
9.18
8.93
8.69
8.43
8.04
7.45
6.62
5.58
4.46
3.43
2.65
2.18
1.96
1.85
1.70
1.44
1.09
0.75
0.47
0.25
-0.01
-0.40
-0.95
-1.66
-2.44
-3.25
-4.08
-4.94
-5.85
-6.81
-7.83
-8.94
-10.20
-11.61
-13.06
-14.32
-15.04
-14.90
-13.73
-11.62
-8.84
-5.79
-2.83
-0.19
2.07
3.96
5.46
6.51
7.05
7.06
6.64
5.98
5.28
4.65
4.09
3.49
2.77
1.92
1.05
0.27
-0.30
-0.69
-1.00
-1.41
-2.03
-2.89
-3.89
-4.92
-5.88
-6.75
-7.58
-8.48
-9.53
-10.72
-12.00
-13.19
-14.10
-14.50
-14.19
-13.06
-11.17
-8.69
-5.94
-3.21
-0.74
1.42
3.29
4.90
6.24
7.22
7.72
7.71
7.30
6.65
5.96
5.35
4.83
4.33
3.84
3.35
2.92
2.57
2.29
2.05
1.75
1.39
1.01
0.66
0.37
0.08
-0.33
-1.07
-2.25
-3.91
-5.90
-7.96
-9.76
-10.95
-11.25
-10.56
-8.93
-6.61
-3.97
-1.40
0.81
2.54
3.79
4.65
5.20
5.45
5.35
4.84
3.90
2.62
1.12
-0.42
-1.86
-3.11
-4.14
-4.93
-5.51
-5.86
-6.00
-5.93
-5.71
-5.46
-5.29
-5.31
-5.57
-6.08
-6.80
-7.64
-8.55
-9.44
-10.25
-10.97
-11.63
-12.24
-12.79
-13.14
-13.06
-12.28
-10.62
-8.13
-5.09
-1.93
0.91
3.18
4.83
5.98
6.85
7.62
8.36
9.07
9.63
9.90
9.78
9.26
8.46
7.59
6.88
6.46
6.28
6.18
5.89
5.21
4.13
2.71
1.11
-0.54
-2.18
-3.76
-5.20
-6.41
-7.33
-8.00
-8.64
-9.48
-10.73
-12.38
-14.19
-15.75
-16.62
-16.44
-15.03
-12.43
-8.88
-4.79
-0.65
3.03
5.92
7.89
9.04
9.63
9.93
10.09
10.09
9.86
9.30
8.41
7.29
6.15
5.19
4.57
4.33
4.40
4.66
4.97
5.28
5.56
5.83
6.07
6.17
5.99
5.35
4.17
2.44
0.25
-2.26
-4.96
-7.68
-10.24
-12.35
-13.71
-14.03
-13.15
-11.13
-8.21
-4.76
-1.20
2.13
4.94
7.07
8.49
9.24
9.43
9.21
8.73
8.13
7.46
6.66
5.65
4.42
2.99
1.49
0.01
-1.26
-2.26
-2.95
-3.39
-3.74
-4.11
-4.60
-5.38
-6.53
-7.87
-9.17
-10.32
-11.40
-12.72
-14.45
-16.64
-19.29
-22.22
-24.83
-26.55
-27.14
-26.66
-25.51
-23.64
-20.93
-17.38
-13.10
-7.77
-1.33
5.81
12.80
18.51
22.80
26.04
28.81
31.87
36.64
44.14
54.39
66.27
77.67
87.18
93.80
96.93
92.00
77.09
54.44
29.72
11.00
-1.23
-8.07
-10.61
-10.26
-7.97
-4.10
0.63
4.96
7.37
6.38
2.23
-4.02
-11.09
-17.80
-22.84
-25.50
-25.89
-24.86
-23.65
-22.60
-21.59
-20.37
-18.69
-16.18
-12.75
-8.72
-4.64
-1.20
1.54
3.69
5.27
6.24
6.74
7.01
7.36
8.02
9.03
10.37
11.85
13.10
13.76
13.58
12.53
10.71
8.29
5.49
2.56
-0.33
-3.17
-6.05
-9.02
-12.08
-15.12
-17.99
-20.59
-22.85
-24.65
-25.82
-26.10
-25.30
-23.42
-20.71
-17.67
-14.84
-12.63
-11.21
-10.47
-10.20
-10.12
-10.07
-9.99
-9.85
-9.66
-9.36
-8.87
-8.12
-7.15
-6.07
-5.12
-4.50
-4.29
-4.44
-4.73
-4.99
-5.07
-4.96
-4.72
-4.45
-4.20
-4.03
-4.00
-4.18
-4.61
-5.31
-6.20
-7.14
-7.92
-8.34
-8.25
-7.57
-6.27
-4.44
-2.24
0.10
2.30
4.13
5.50
6.41
6.99
7.34
7.54
7.56
7.31
6.72
5.78
4.55
3.13
1.57
-0.08
-1.82
-3.63
-5.39
-6.98
-8.23
-9.07
-9.51
-9.73
-9.93
-10.32
-11.03
-11.98
-12.92
-13.48
-13.31
-12.23
-10.26
-7.64
-4.72
-1.83
0.84
3.28
5.56
7.78
9.89
11.76
13.16
13.94
14.07
13.67
12.97
12.13
11.29
10.44
9.55
8.62
7.71
6.93
6.36
6.02
5.83
5.67
5.44
5.07
4.59
4.07
3.61
3.37
3.45
3.89
4.68
5.72
6.91
8.15
9.37
10.51
11.45
12.05
12.12
11.56
10.37
8.66
6.69
4.67
2.81
1.18
-0.24
-1.52
-2.79
-4.14
-5.58
-7.02
-8.28
-9.19
-9.68
-9.90
-10.08
-10.54
-11.40
-12.61
-13.89
-14.90
-15.32
-14.96
-13.77
-11.85
-9.35
-6.53
-3.69
-1.12
1.02
2.72
4.11
5.38
6.60
7.68
8.42
8.64
8.27
7.44
6.39
5.33
4.36
3.47
2.58
1.65
0.72
-0.10
-0.75
-1.22
-1.65
-2.23
-3.17
-4.60
-6.53
-8.83
-11.28
-13.55
-15.28
-16.16
-16.00
-14.82
-12.83
-10.37
-7.78
-5.31
-3.09
-1.14
0.62
2.21
3.63
4.81
5.62
5.95
5.74
5.08
4.17
3.33
2.85
2.86
3.32
4.00
4.63
5.01
5.06
4.84
4.40
3.78
2.99
2.02
0.92
-0.23
-1.34
-2.38
-3.41
-4.58
-6.00
-7.66
-9.38
-10.81
-11.52
-11.20
-9.70
-7.19
-4.04
-0.70
2.43
5.12
7.27
8.89
10.02
10.63
10.71
10.23
9.26
8.01
6.73
5.68
5.03
4.71
4.50
4.13
3.44
2.43
1.34
0.44
-0.13
-0.41
-0.64
-1.12
-2.06
-3.53
-5.42
-7.58
-9.79
-11.89
-13.73
-15.21
-16.35
-17.21
-17.93
-18.67
-19.51
-20.46
-21.43
-22.21
-22.48
-21.90
-20.22
-17.38
-13.59
-9.34
-5.17
-1.53
1.43
3.75
5.59
7.06
8.18
8.93
9.38
9.69
10.13
10.86
11.93
13.16
14.30
15.14
15.61
15.76
15.71
15.65
15.78
16.28
17.28
18.82
20.85
23.23
25.82
28.43
30.81
32.61
33.37
32.70
30.46
26.88
22.54
18.21
14.56
12.01
10.71
10.53
11.19
12.27
13.25
13.57
12.75
10.62
7.33
3.32
-0.84
-4.63
-7.76
-10.12
-11.79
-12.93
-13.73
-14.38
-15.03
-15.68
-16.24
-16.53
-16.42
-15.94
-15.35
-14.94
-14.92
-15.25
-15.69
-15.93
-15.86
-15.63
-15.60
-16.10
-17.26
-18.87
-20.49
-21.65
-22.06
-21.62
-20.39
-18.44
-15.79
-12.43
-8.44
-4.05
0.34
4.30
7.55
10.04
11.93
13.45
14.71
15.63
16.03
15.76
14.82
13.36
11.62
9.81
8.05
6.35
4.72
3.20
1.84
0.69
-0.20
-0.82
-1.15
-1.21
-1.09
-0.91
-0.85
-1.06
-1.59
-2.39
-3.33
-4.21
-4.81
-4.96
-4.53
-3.45
-1.84
0.10
2.08
3.83
5.20
6.17
6.80
7.11
7.09
6.66
5.81
4.61
3.28
2.07
1.19
0.68
0.44
0.25
-0.10
-0.69
-1.51
-2.45
-3.38
-4.28
-5.20
-6.25
-7.52
-8.97
-10.44
-11.71
-12.58
-12.96
-12.90
-12.46
-11.71
-10.61
-9.02
-6.84
-4.04
-0.79
2.65
5.96
8.91
11.40
13.46
15.12
16.36
17.06
17.08
16.35
14.99
13.26
11.49
9.95
8.75
7.79
6.92
6.02
5.09
4.24
3.61
3.29
3.25
3.36
3.45
3.39
3.13
2.73
2.27
1.84
1.39
0.83
0.01
-1.12
-2.51
-4.02
-5.50
-6.87
-8.17
-9.46
-10.72
-11.76
-12.30
-12.05
-10.93
-9.10
-6.88
-4.65
-2.62
-0.83
0.77
2.24
3.52
4.45
4.88
4.75
4.11
3.15
2.10
1.17
0.45
-0.05
-0.45
-0.89
-1.46
-2.17
-2.89
-3.43
-3.60
-3.29
-2.57
-1.65
-0.88
-0.59
-0.98
-2.05
-3.54
-5.09
-6.32
-7.03
-7.22
-7.09
-6.94
-7.01
-7.40
-8.05
-8.81
-9.54
-10.09
-10.33
-10.10
-9.22
-7.62
-5.38
-2.76
-0.11
2.28
4.31
6.05
7.64
9.15
10.50
11.48
11.99
12.05
11.86
11.64
11.53
11.49
11.37
11.00
10.35
9.51
8.63
7.82
7.09
6.40
5.68
4.87
3.94
2.87
1.67
0.35
-1.02
-2.37
-3.63
-4.79
-5.93
-7.11
-8.41
-9.84
-11.39
-13.03
-14.67
-16.18
-17.36
-17.91
-17.56
-16.17
-13.84
-10.91
-7.89
-5.21
-3.11
-1.59
-0.49
0.39
1.14
1.76
2.17
2.32
2.23
1.98
1.72
1.55
1.52
1.62
1.81
2.01
2.15
2.15
1.96
1.58
1.09
0.58
0.16
-0.14
-0.36
-0.65
-1.18
-2.06
-3.27
-4.65
-5.99
-7.14
-8.05
-8.88
-9.83
-11.08
-12.70
-14.60
-16.63
-18.57
-20.21
-21.37
-21.89
-21.64
-20.54
-18.66
-16.19
-13.45
-10.78
-8.46
-6.61
-5.20
-4.09
-3.12
-2.19
-1.26
-0.36
0.50
1.35
2.34
3.65
5.46
7.92
11.02
14.59
18.32
21.80
24.68
26.78
28.13
28.92
29.37
29.62
29.67
29.45
28.93
28.13
27.18
26.18
25.11
23.83
22.15
19.92
17.23
14.32
11.51
9.09
7.20
5.89
5.12
4.87
5.13
5.87
6.95
8.12
9.06
9.47
9.22
8.39
7.15
5.71
4.12
2.31
0.15
-2.40
-5.20
-7.97
-10.42
-12.37
-13.83
-14.95
-15.84
-16.56
-17.03
-17.18
-17.01
-16.65
-16.32
-16.21
-16.36
-16.65
-16.90
-16.94
-16.74
-16.40
-16.09
-15.94
-15.98
-16.17
-16.40
-16.60
-16.69
-16.53
-15.97
-14.80
-12.91
-10.36
-7.38
-4.29
-1.43
1.01
3.01
4.61
5.89
6.83
7.37
7.43
6.96
6.04
4.78
3.36
1.90
0.48
-0.89
-2.23
-3.51
-4.66
-5.57
-6.22
-6.67
-7.11
-7.76
-8.74
-10.08
-11.68
-13.43
-15.27
-17.16
-19.10
-21.05
-22.90
-24.59
-26.09
-27.49
-28.96
-30.62
-32.44
-34.20
-35.53
-36.03
-35.45
-33.75
-31.20
-28.21
-25.22
-22.57
-20.34
-18.46
-16.76
-15.11
-13.52
-12.07
-10.85
-9.85
-8.92
-7.80
-6.26
-4.15
-1.53
1.39
4.36
7.16
9.73
12.09
14.37
16.65
18.93
21.13
23.08
24.64
25.71
26.33
26.57
26.61
26.56
26.50
26.39
26.14
25.65
24.97
24.36
24.22
24.99
26.84
29.61
32.74
35.59
37.62
38.66
38.94
38.85
38.73
38.64
38.40
37.71
36.35
34.36
31.95
29.38
26.88
24.52
22.30
20.19
18.16
16.22
14.35
12.48
10.55
8.54
6.49
4.46
2.49
0.52
-1.56
-3.78
-6.02
-8.01
-9.45
-10.09
-9.92
-9.03
-7.60
-5.77
-3.58
-1.06
1.69
4.48
7.03
9.08
10.46
11.18
11.33
11.04
10.45
9.64
8.67
7.63
6.57
5.60
4.79
4.18
3.73
3.29
2.68
1.70
0.31
-1.38
-3.10
-4.57
-5.62
-6.32
-6.95
-7.83
-9.12
-10.68
-12.10
-12.94
-12.83
-11.67
-9.55
-6.66
-3.21
0.59
4.48
8.09
11.00
12.87
13.62
13.48
12.87
12.19
11.68
11.29
10.84
10.14
9.11
7.82
6.33
4.68
2.83
0.75
-1.51
-3.81
-5.93
-7.73
-9.14
-10.14
-10.79
-11.07
-11.01
-10.65
-10.05
-9.35
-8.65
-8.09
-7.80
-7.95
-8.69
-10.08
-12.02
-14.19
-16.15
-17.49
-17.96
-17.53
-16.36
-14.65
-12.56
-10.19
-7.58
-4.80
-1.94
0.87
3.53
5.99
8.18
10.09
11.64
12.79
13.49
13.75
13.58
13.05
12.25
11.34
10.49
9.82
9.36
9.03
8.65
8.05
7.10
5.73
3.90
1.60
-1.18
-4.41
-7.96
-11.65
-15.34
-18.96
-22.50
-25.96
-29.22
-31.98
-33.83
-34.44
-33.70
-31.80
-29.11
-26.04
-22.83
-19.59
-16.32
-13.06
-9.98
-7.37
-5.56
-4.72
-4.82
-5.55
-6.40
-6.85
-6.43
-4.90
-2.26
1.20
4.84
7.79
9.06
7.88
4.04
-1.99
-9.11
-15.90
-21.12
-24.04
-24.66
-23.52
-21.41
-19.04
-16.86
-15.01
-13.39
-11.75
-9.73
-6.96
-3.14
1.89
8.07
15.15
22.77
30.53
38.09
45.16
51.42
56.57
60.40
62.90
64.40
65.43
66.49
67.79
69.11
69.89
69.62
68.08
65.53
62.66
60.20
58.59
57.83
57.54
57.22
56.59
55.66
54.75
54.22
54.24
54.74
55.39
55.83
55.83
55.38
54.51
53.29
51.71
49.62
46.78
43.02
38.23
32.50
26.09
19.21
12.13
5.21
-1.22
-6.95
-11.96
-16.38
-20.47
-24.56
-29.26
-35.04
-42.03
-49.97
-58.40
-66.92
-75.22
-83.21
-90.89
-98.78
-107.01
-115.19
-122.48
-128.10
-131.70
-133.43
-133.66
-132.59
-130.74
-127.98
-123.68
-117.17
-108.47
-98.63
-89.32
-82.15
-73.70
-62.06
-47.29
-31.50
-17.18
-5.65
3.05
9.67
15.23
20.61
25.47
29.15
31.08
31.22
30.13
28.78
28.31
29.62
33.00
37.37
41.24
43.34
43.22
41.33
38.70
36.46
35.23
34.92
34.56
33.22
30.71
27.67
25.09
23.66
23.25
23.05
22.13
19.94
16.82
13.81
12.04
11.98
13.16
14.50
15.01
14.39
12.98
11.49
10.45
9.86
9.25
8.06
6.19
3.75
1.35
-0.53
-1.72
-2.45
-3.08
-3.82
-4.67
-5.42
-5.92
-6.21
-6.52
-7.11
-8.07
-9.27
-10.46
-11.34
-11.70
-11.46
-10.57
-9.08
-7.20
-5.36
-4.02
-3.47
-3.71
-4.38
-5.00
-5.19
-4.87
-4.22
-3.53
-3.03
-2.79
-2.72
-2.69
-2.58
-2.29
-1.88
-1.33
-0.64
0.26
1.40
2.80
4.38
5.96
7.28
8.04
8.18
8.09
8.53
10.19
13.40
17.92
22.90
27.29
29.89
29.99
27.53
23.03
17.30
11.35
6.26
3.05
2.45
4.01
6.73
9.50
11.43
11.92
10.74
8.09
4.54
0.79
-3.19
-7.30
-10.98
-13.52
-14.80
-15.30
-15.77
-16.76
-18.49
-21.86
-27.53
-35.32
-44.61
-54.83
-65.40
-75.28
-83.04
-81.24
-66.69
-43.17
-18.38
2.16
16.89
26.60
32.51
35.43
35.81
33.45
29.14
24.98
23.10
23.93
25.94
26.83
24.99
20.47
13.88
6.43
-0.59
-6.30
-10.64
-13.77
-15.62
-15.83
-14.30
-12.05
-10.50
-10.71
-12.86
-16.46
-20.49
-23.71
-24.91
-23.31
-19.03
-12.78
-6.00
0.26
4.73
6.55
5.72
3.31
0.98
0.24
1.71
4.97
8.84
11.91
13.39
13.31
12.28
10.93
9.57
8.21
6.79
5.47
4.54
4.14
4.08
3.82
2.75
0.62
-2.26
-5.24
-7.61
-9.03
-9.60
-9.63
-9.40
-9.00
-8.32
-7.30
-6.02
-4.71
-3.68
-3.26
-3.63
-4.76
-6.53
-8.73
-11.09
-13.35
-15.25
-16.64
-17.50
-18.00
-18.37
-18.84
-19.44
-20.07
-20.55
-20.88
-21.26
-22.02
-23.39
-25.28
-27.29
-28.91
-29.83
-30.08
-30.04
-30.13
-30.55
-31.16
-31.54
-31.28
-30.26
-28.68
-26.99
-25.58
-24.59
-23.80
-22.81
-21.24
-18.96
-16.18
-13.33
-10.88
-9.18
-8.40
-8.48
-9.27
-10.48
-11.75
-12.66
-12.78
-11.89
-10.05
-7.73
-5.59
-4.29
-4.20
-5.27
-7.05
-8.84
-9.94
-9.77
-7.97
-4.38
1.06
8.25
16.94
26.68
36.87
46.79
55.75
63.22
68.94
72.91
75.35
76.66
77.26
77.48
77.55
77.47
77.09
76.12
74.22
71.17
66.95
61.87
56.54
51.71
48.05
45.91
45.15
45.18
45.21
44.58
42.95
40.43
37.36
34.17
31.19
28.67
26.81
25.83
25.91
27.05
29.00
31.28
33.32
34.65
35.01
34.36
32.87
30.85
28.66
26.66
25.12
24.11
23.43
22.71
21.55
19.70
17.12
13.94
10.43
6.85
3.50
0.65
-1.50
-2.91
-3.78
-4.44
-5.29
-6.53
-8.12
-9.89
-11.66
-13.35
-15.01
-16.68
-18.34
-19.85
-21.10
-22.03
-22.80
-23.64
-24.78
-26.28
-27.98
-29.55
-30.66
-31.07
-30.72
-29.65
-27.98
-25.89
-23.55
-21.27
-19.43
-18.54
-18.95
-20.79
-23.78
-27.30
-30.56
-32.84
-33.77
-33.35
-31.93
-29.98
-27.95
-26.11
-24.58
-23.37
-22.46
-21.85
-21.61
-21.81
-22.52
-23.70
-25.26
-27.08
-29.04
-31.03
-32.95
-34.68
-35.99
-36.60
-36.19
-34.52
-31.50
-27.16
-21.68
-15.28
-8.15
-0.50
7.52
15.78
24.14
32.46
40.49
47.93
54.40
59.56
63.19
65.28
66.06
65.88
65.16
64.22
63.23
62.26
61.29
60.29
59.26
58.22
57.20
56.23
55.34
54.55
53.90
53.40
53.05
52.81
52.55
52.14
51.41
50.24
48.48
45.98
42.55
37.97
32.05
24.71
16.09
6.62
-2.99
-11.90
-19.32
-24.84
-28.56
-31.07
-33.28
-36.10
-40.09
-45.24
-51.03
-56.76
-61.97
-66.55
-70.69
-74.54
-77.93
-80.31
-80.95
-79.22
-74.92
-68.42
-60.35
-51.38
-42.10
-33.27
-25.90
-21.25
-20.46
-23.99
-31.52
-41.52
-51.53
-58.97
-62.09
-60.52
-55.28
-48.13
-40.97
-35.66
-33.16
-33.35
-35.54
-39.23
-44.42
-51.28
-59.61
-68.56
-77.52
-85.49
-91.11
-93.05
-90.81
-84.56
-74.70
-61.42
-44.98
-27.47
-11.76
-0.55
4.59
3.40
-2.74
-11.10
-18.71
-17.48
-4.82
14.60
32.37
43.42
48.14
49.90
51.60
53.87
55.47
53.78
47.71
37.97
28.08
21.07
18.25
19.37
23.33
29.01
34.67
38.86
40.66
39.75
35.88
29.17
20.90
13.76
10.82
13.47
20.94
30.78
40.20
46.93
50.11
50.25
48.42
45.43
41.32
36.21
31.16
28.11
28.37
31.57
35.58
37.70
36.17
30.63
21.79
11.07
-0.26
-11.36
-21.42
-29.27
-33.39
-32.69
-27.41
-19.35
-10.27
-0.88
9.18
20.26
30.82
37.78
38.65
35.19
29.30
23.09
18.35
15.30
13.54
12.08
10.05
7.30
4.37
1.65
-0.62
-2.46
-4.59
-8.36
-14.32
-21.98
-29.81
-36.45
-41.64
-46.01
-50.64
-56.45
-63.36
-70.02
-74.29
-74.18
-68.94
-59.56
-48.21
-37.26
-28.55
-22.86
-20.03
-19.33
-20.00
-21.45
-23.41
-25.63
-27.76
-29.36
-29.91
-28.90
-25.95
-20.96
-14.27
-6.62
1.04
7.87
13.47
17.86
21.46
24.63
27.51
29.90
31.50
32.18
32.16
32.03
32.45
33.86
36.22
38.99
41.38
42.71
42.64
41.34
39.41
37.63
36.78
37.38
39.55
42.86
46.34
48.57
48.06
43.68
35.16
23.29
9.77
-3.23
-13.64
-19.94
-21.42
-18.26
-11.34
-2.08
7.86
16.87
23.81
28.08
29.76
29.37
27.60
25.13
22.44
19.85
17.52
15.49
13.68
11.95
10.16
8.28
6.50
5.19
4.78
5.64
7.92
11.28
14.93
17.66
18.22
15.71
9.97
1.66
-8.00
-17.69
-26.41
-33.76
-39.83
-44.84
-48.87
-51.66
-52.71
-51.55
-48.04
-42.51
-35.70
-28.54
-21.85
-16.07
-11.19
-6.88
-2.73
1.49
5.73
9.78
13.47
16.84
20.09
23.41
26.73
29.68
31.68
32.27
31.38
29.35
26.85
24.49
22.56
20.99
19.45
17.56
15.13
12.20
8.99
5.76
2.72
-0.02
-2.45
-4.64
-6.67
-8.65
-10.65
-12.64
-14.51
-16.05
-17.01
-17.22
-16.57
-15.16
-13.17
-10.94
-8.84
-7.24
-6.37
-6.29
-6.77
-7.36
-7.51
-6.78
-5.02
-2.39
0.63
3.49
5.66
6.84
6.96
6.16
4.72
2.93
1.04
-0.78
-2.44
-3.92
-5.21
-6.31
-7.24
-8.01
-8.74
-9.54
-10.53
-11.68
-12.83
-13.67
-13.91
-13.39
-12.15
-10.44
-8.59
-6.84
-5.27
-3.81
-2.37
-0.87
0.58
1.81
2.61
2.89
2.66
2.12
1.50
0.99
0.64
0.40
0.11
-0.36
-1.03
-1.83
-2.55
-3.05
-3.24
-3.17
-3.04
-3.07
-3.44
-4.14
-5.07
-6.01
-6.74
-7.14
-7.12
-6.67
-5.78
-4.49
-2.85
-1.01
0.88
2.69
4.36
5.92
7.38
8.69
9.69
10.19
10.06
9.36
8.32
7.27
6.46
5.98
5.73
5.46
4.99
4.22
3.21
2.14
1.16
0.38
-0.22
-0.76
-1.36
-2.17
-3.22
-4.48
-5.85
-7.20
-8.35
-9.09
-9.25
-8.69
-7.43
-5.64
-3.60
-1.62
0.09
1.47
2.57
3.45
4.13
4.57
4.69
4.49
4.08
3.64
3.34
3.23
3.26
3.32
3.30
3.15
2.87
2.47
1.93
1.26
0.47
-0.37
-1.15
-1.78
-2.23
-2.57
-2.95
-3.52
-4.42
-5.63
-7.02
-8.34
-9.32
-9.73
-9.48
-8.62
-7.33
-5.85
-4.42
-3.20
-2.28
-1.67
-1.28
-1.01
-0.76
-0.45
-0.12
0.15
0.22
0.00
-0.52
-1.22
-1.88
-2.28
-2.32
-2.04
-1.68
-1.48
-1.61
-2.10
-2.76
-3.40
-3.89
-4.27
-4.68
-5.26
-6.01
-6.81
-7.42
-7.69
-7.54
-7.01
-6.22
-5.27
-4.22
-3.09
-1.86
-0.53
0.88
2.33
3.74
5.04
6.15
7.01
7.54
7.70
7.46
6.87
6.01
5.01
4.06
3.32
2.85
2.63
2.50
2.26
1.74
0.87
-0.29
-1.57
-2.79
-3.80
-4.56
-5.16
-5.79
-6.67
-7.91
-9.46
-11.06
-12.36
-12.98
-12.72
-11.57
-9.78
-7.69
-5.60
-3.66
-1.89
-0.21
1.41
2.87
4.01
4.66
4.78
4.47
3.94
3.38
2.92
2.50
2.04
1.45
0.72
-0.11
-0.97
-1.82
-2.67
-3.51
-4.30
-5.01
-5.61
-6.13
-6.70
-7.46
-8.48
-9.73
-11.01
-12.03
-12.51
-12.26
-11.21
-9.47
-7.21
-4.67
-2.08
0.34
2.43
4.05
5.15
5.76
5.98
5.99
5.92
5.86
5.79
5.67
5.43
5.01
4.42
3.73
3.03
2.43
1.98
1.65
1.30
0.73
-0.24
-1.67
-3.47
-5.42
-7.27
-8.87
-10.21
-11.42
-12.58
-13.68
-14.52
-14.77
-14.12
-12.43
-9.80
-6.52
-2.98
0.48
3.67
6.55
9.14
11.46
13.42
14.93
15.87
16.24
16.14
15.73
15.18
14.60
14.07
13.63
13.34
13.25
13.35
13.59
13.80
13.80
13.49
12.83
11.92
10.85
9.66
8.32
6.79
5.05
3.16
1.24
-0.51
-2.01
-3.21
-4.23
-5.23
-6.37
-7.78
-9.46
-11.23
-12.78
-13.73
-13.74
-12.67
-10.64
-7.98
-5.13
-2.42
-0.03
2.08
4.03
5.92
7.69
9.22
10.34
10.97
11.16
11.00
10.64
10.16
9.58
8.93
8.25
7.61
7.08
6.69
6.42
6.19
5.89
5.42
4.74
3.81
2.70
1.46
0.20
-0.99
-2.06
-2.95
-3.68
-4.26
-4.75
-5.28
-5.97
-6.94
-8.19
-9.58
-10.83
-11.61
-11.62
-10.73
-8.98
-6.56
-3.75
-0.85
1.88
4.26
6.24
7.83
9.06
9.91
10.35
10.28
9.68
8.67
7.44
6.25
5.26
4.51
3.91
3.30
2.57
1.72
0.79
-0.14
-1.02
-1.83
-2.58
-3.29
-4.00
-4.77
-5.65
-6.71
-7.95
-9.34
-10.81
-12.24
-13.46
-14.32
-14.62
-14.21
-13.04
-11.11
-8.57
-5.60
-2.44
0.65
3.47
5.87
7.80
9.28
10.39
11.15
11.54
11.50
11.01
10.17
9.13
8.11
7.21
6.41
5.57
4.59
3.41
2.07
0.67
-0.73
-2.07
-3.36
-4.61
-5.82
-7.02
-8.21
-9.42
-10.61
-11.70
-12.62
-13.26
-13.54
-13.40
-12.73
-11.36
-9.18
-6.15
-2.42
1.74
5.97
9.94
13.38
16.13
18.12
19.38
20.03
20.22
20.16
19.95
19.61
19.07
18.27
17.21
15.94
14.55
13.05
11.43
9.69
7.86
6.09
4.49
3.13
1.93
0.78
-0.44
-1.77
-3.17
-4.63
-6.16
-7.81
-9.55
-11.22
-12.50
-13.05
-12.63
-11.23
-9.06
-6.43
-3.67
-1.04
1.31
3.27
4.76
5.77
6.33
6.57
6.58
6.44
6.13
5.63
4.94
4.14
3.38
2.72
2.19
1.69
1.14
0.52
-0.09
-0.54
-0.76
-0.73
-0.56
-0.41
-0.41
-0.65
-1.20
-2.03
-3.06
-4.10
-4.86
-5.06
-4.49
-3.13
-1.15
1.16
3.49
5.58
7.29
8.58
9.46
9.94
10.06
9.85
9.34
8.58
7.66
6.66
5.67
4.74
3.87
3.02
2.16
1.30
0.48
-0.27
-1.03
-1.99
-3.36
-5.29
-7.74
-10.44
-13.04
-15.26
-17.05
-18.51
-19.78
-20.86
-21.55
-21.51
-20.46
-18.35
-15.37
-11.90
-8.38
-5.09
-2.18
0.37
2.58
4.49
6.06
7.21
7.87
8.04
7.79
7.26
6.63
6.05
5.60
5.28
5.09
5.01
5.00
5.04
5.06
4.96
4.66
4.10
3.31
2.31
1.16
-0.09
-1.36
-2.56
-3.65
-4.62
-5.60
-6.74
-8.13
-9.69
-11.11
-11.96
-11.88
-10.71
-8.61
-5.97
-3.26
-0.84
1.12
2.63
3.80
4.71
5.36
5.72
5.76
5.55
5.25
4.99
4.81
4.62
4.27
3.66
2.83
1.98
1.33
1.02
1.03
1.20
1.33
1.31
1.11
0.75
0.27
-0.32
-1.05
-1.96
-3.05
-4.33
-5.81
-7.50
-9.28
-10.92
-12.09
-12.44
-11.79
-10.18
-7.85
-5.16
-2.41
0.18
2.48
4.43
5.96
7.00
7.55
7.68
7.49
7.13
6.67
6.14
5.50
4.72
3.76
2.66
1.50
0.43
-0.43
-0.99
-1.27
-1.39
-1.52
-1.76
-2.09
-2.40
-2.56
-2.57
-2.57
-2.79
-3.41
-4.44
-5.71
-6.90
-7.74
-8.04
-7.76
-6.94
-5.64
-3.89
-1.78
0.55
2.93
5.13
7.00
8.45
9.50
10.18
10.54
10.60
10.40
10.02
9.51
8.94
8.33
7.67
6.93
6.14
5.32
4.58
3.96
3.45
2.96
2.38
1.61
0.59
-0.65
-2.03
-3.43
-4.76
-5.94
-6.95
-7.84
-8.63
-9.35
-9.93
-10.26
-10.18
-9.58
-8.39
-6.63
-4.39
-1.80
1.03
3.97
6.84
9.43
11.54
12.96
13.61
13.52
12.84
11.76
10.50
9.21
7.97
6.81
5.71
4.65
3.57
2.48
1.42
0.45
-0.37
-1.02
-1.57
-2.11
-2.76
-3.55
-4.45
-5.35
-6.12
-6.67
-6.95
-7.05
-7.17
-7.53
-8.34
-9.57
-11.00
-12.18
-12.66
-12.15
-10.68
-8.58
-6.27
-4.09
-2.16
-0.44
1.18
2.69
3.92
4.66
4.75
4.24
3.35
2.32
1.37
0.57
-0.12
-0.68
-1.06
-1.16
-0.93
-0.43
0.16
0.65
0.89
0.84
0.55
0.09
-0.50
-1.23
-2.10
-3.08
-4.11
-5.09
-5.96
-6.71
-7.36
-7.87
-8.15
-8.03
-7.37
-6.11
-4.29
-2.12
0.16
2.30
4.15
5.69
6.97
8.04
8.94
9.59
9.90
9.79
9.28
8.46
7.50
6.55
5.72
5.01
4.41
3.88
3.40
2.93
2.45
1.89
1.21
0.39
-0.52
-1.47
-2.44
-3.42
-4.48
-5.62
-6.83
-8.00
-9.00
-9.70
-10.01
-9.83
-9.13
-7.92
-6.29
-4.42
-2.52
-0.78
0.78
2.24
3.75
5.35
6.94
8.27
9.10
9.27
8.86
8.11
7.32
6.67
6.23
5.89
5.51
4.98
4.31
3.58
2.91
2.38
2.03
1.80
1.62
1.41
1.11
0.67
0.08
-0.71
-1.70
-2.85
-4.08
-5.32
-6.52
-7.70
-8.89
-10.11
-11.26
-12.16
-12.57
-12.35
-11.47
-10.06
-8.31
-6.39
-4.45
-2.55
-0.74
0.94
2.48
3.86
5.17
6.46
7.78
9.05
10.13
10.85
11.07
10.75
10.01
9.09
8.27
7.76
7.63
7.77
7.96
7.97
7.69
7.13
6.40
5.60
4.78
3.87
2.84
1.70
0.52
-0.60
-1.64
-2.65
-3.76
-5.07
-6.55
-8.08
-9.48
-10.58
-11.26
-11.44
-11.13
-10.32
-9.11
-7.61
-5.98
-4.38
-2.91
-1.59
-0.35
0.85
2.05
3.18
4.15
4.88
5.34
5.58
5.68
5.71
5.68
5.55
5.25
4.76
4.09
3.40
2.85
2.57
2.54
2.61
2.55
2.16
1.40
0.40
-0.65
-1.55
-2.20
-2.68
-3.12
-3.72
-4.59
-5.77
-7.22
-8.76
-10.16
-11.17
-11.55
-11.18
-10.06
-8.34
-6.21
-3.90
-1.60
0.49
2.18
3.33
3.91
4.00
3.86
3.77
3.91
4.28
4.67
4.80
4.49
3.72
2.67
1.57
0.60
-0.22
-0.95
-1.63
-2.26
-2.78
-3.15
-3.42
-3.73
-4.20
-4.90
-5.73
-6.59
-7.40
-8.22
-9.14
-10.27
-11.57
-12.86
-13.89
-14.41
-14.29
-13.48
-12.02
-9.98
-7.45
-4.58
-1.54
1.49
4.37
7.02
9.39
11.40
12.93
13.89
14.25
14.19
13.96
13.83
13.88
13.97
13.81
13.18
12.05
10.61
9.15
7.90
6.89
5.99
5.03
3.93
2.74
1.56
0.49
-0.47
-1.41
-2.41
-3.56
-4.90
-6.39
-7.96
-9.46
-10.69
-11.44
-11.52
-10.85
-9.44
-7.48
-5.20
-2.85
-0.64
1.32
2.99
4.35
5.43
6.25
6.82
7.12
7.17
7.00
6.64
6.15
5.55
4.83
4.00
3.09
2.19
1.36
0.68
0.16
-0.24
-0.58
-0.90
-1.23
-1.58
-1.95
-2.39
-2.99
-3.86
-5.07
-6.57
-8.24
-9.86
-11.20
-12.03
-12.19
-11.58
-10.21
-8.19
-5.75
-3.18
-0.77
1.29
2.94
4.23
5.32
6.33
7.26
8.07
8.62
8.82
8.66
8.21
7.60
6.98
6.44
6.04
5.76
5.55
5.34
5.07
4.75
4.38
3.99
3.56
2.98
2.11
0.82
-0.91
-2.96
-5.13
-7.18
-8.98
-10.46
-11.62
-12.42
-12.75
-12.43
-11.33
-9.47
-7.01
-4.28
-1.58
0.85
2.91
4.62
6.04
7.19
8.01
8.39
8.24
7.62
6.74
5.90
5.36
5.20
5.27
5.30
5.08
4.57
3.97
3.56
3.48
3.63
3.69
3.34
2.41
1.02
-0.52
-1.91
-3.01
-3.88
-4.67
-5.51
-6.44
-7.43
-8.42
-9.44
-10.51
-11.60
-12.58
-13.20
-13.24
-12.58
-11.31
-9.63
-7.73
-5.68
-3.44
-0.93
1.85
4.76
7.58
10.04
11.98
13.34
14.14
14.43
14.20
13.44
12.24
10.75
9.24
7.93
6.97
6.36
5.99
5.67
5.27
4.69
3.88
2.86
1.68
0.39
-0.92
-2.19
-3.38
-4.49
-5.55
-6.58
-7.61
-8.66
-9.70
-10.71
-11.57
-12.10
-12.15
-11.58
-10.38
-8.63
-6.51
-4.26
-2.10
-0.22
1.27
2.33
3.04
3.54
4.00
4.52
5.06
5.49
5.64
5.43
4.91
4.18
3.38
2.62
1.96
1.42
1.04
0.84
0.74
0.63
0.37
-0.09
-0.70
-1.34
-1.90
-2.37
-2.86
-3.52
-4.42
-5.49
-6.57
-7.41
-7.87
-7.86
-7.39
-6.51
-5.31
-3.82
-2.07
-0.00
2.39
5.03
7.68
9.97
11.51
12.10
11.85
11.10
10.29
9.75
9.58
9.64
9.72
9.66
9.41
9.00
8.43
7.66
6.62
5.30
3.80
2.31
1.04
0.13
-0.46
-0.85
-1.30
-2.04
-3.22
-4.80
-6.58
-8.20
-9.31
-9.70
-9.37
-8.54
-7.50
-6.45
-5.43
-4.31
-2.94
-1.35
0.24
1.49
2.14
2.19
1.93
1.77
2.03
2.74
3.65
4.36
4.58
4.26
3.61
2.98
2.61
2.58
2.73
2.83
2.71
2.34
1.84
1.40
1.13
0.99
0.84
0.46
-0.35
-1.64
-3.34
-5.23
-7.02
-8.41
-9.15
-9.11
-8.27
-6.78
-4.88
-2.86
-1.01
0.48
1.53
2.19
2.57
2.77
2.84
2.78
2.55
2.11
1.52
0.90
0.39
0.07
-0.07
-0.17
-0.40
-0.91
-1.72
-2.68
-3.60
-4.30
-4.75
-5.02
-5.33
-5.84
-6.65
-7.71
-8.87
-9.92
-10.64
-10.84
-10.39
-9.26
-7.54
-5.44
-3.28
-1.34
0.19
1.29
2.04
2.58
3.01
3.31
3.42
3.27
2.83
2.20
1.54
1.00
0.68
0.57
0.56
0.50
0.30
-0.06
-0.49
-0.90
-1.23
-1.52
-1.86
-2.33
-2.98
-3.72
-4.44
-5.02
-5.41
-5.63
-5.74
-5.80
-5.78
-5.58
-5.07
-4.12
-2.70
-0.90
1.15
3.25
5.25
7.08
8.72
10.12
11.20
11.78
11.70
10.90
9.50
7.79
6.18
4.94
4.13
3.59
3.02
2.16
0.91
-0.64
-2.35
-4.07
-5.71
-7.28
-8.78
-10.17
-11.37
-12.33
-13.05
-13.58
-14.02
-14.41
-14.71
-14.77
-14.42
-13.51
-11.97
-9.81
-7.17
-4.20
-1.10
1.92
4.68
7.01
8.80
9.93
10.41
10.27
9.69
8.88
8.10
7.54
7.27
7.23
7.23
7.01
6.38
5.28
3.86
2.33
0.98
-0.04
-0.69
-1.06
-1.34
-1.72
-2.40
-3.53
-5.16
-7.19
-9.34
-11.20
-12.28
-12.25
-11.04
-8.84
-6.06
-3.07
-0.13
2.62
5.15
7.41
9.32
10.82
11.88
12.56
12.98
13.25
13.44
13.56
13.54
13.28
12.71
11.82
10.71
9.55
8.52
7.73
7.16
6.68
6.14
5.42
4.51
3.40
2.08
0.53
-1.24
-3.10
-4.81
-6.08
-6.66
-6.43
-5.46
-3.90
-1.93
0.30
2.73
5.26
7.78
10.11
12.03
13.34
13.92
13.82
13.25
12.52
12.02
11.99
12.53
13.48
14.45
14.88
14.26
12.25
8.87
4.46
-0.37
-4.97
-8.82
-11.71
-13.63
-14.77
-15.38
-15.70
-15.91
-16.18
-16.62
-17.23
-17.87
-18.27
-18.11
-17.15
-15.34
-12.85
-9.98
-7.12
-4.51
-2.26
-0.26
1.66
3.64
5.68
7.61
9.13
9.95
9.92
9.12
7.83
6.43
5.28
4.58
4.30
4.29
4.32
4.20
3.81
3.19
2.41
1.60
0.87
0.29
-0.14
-0.50
-0.97
-1.69
-2.77
-4.12
-5.55
-6.77
-7.53
-7.64
-7.06
-5.80
-3.98
-1.72
0.77
3.26
5.46
7.11
8.07
8.32
8.03
7.44
6.80
6.28
5.97
5.83
5.72
5.48
5.02
4.34
3.54
2.80
2.24
1.88
1.61
1.24
0.61
-0.34
-1.60
-3.04
-4.54
-6.00
-7.34
-8.56
-9.70
-10.83
-12.02
-13.22
-14.29
-14.98
-15.06
-14.38
-12.97
-11.03
-8.86
-6.78
-5.01
-3.62
-2.56
-1.67
-0.82
0.06
0.94
1.74
2.34
2.62
2.51
1.94
0.94
-0.37
-1.73
-2.81
-3.34
-3.19
-2.48
-1.51
-0.62
-0.05
0.14
0.02
-0.21
-0.40
-0.45
-0.32
-0.05
0.25
0.47
0.50
0.31
-0.08
-0.57
-1.00
-1.22
-1.04
-0.34
0.95
2.80
5.00
7.27
9.26
10.71
11.52
11.76
11.61
11.24
10.73
10.04
9.14
8.00
6.76
5.58
4.60
3.86
3.24
2.60
1.83
0.94
-0.01
-0.90
-1.66
-2.27
-2.75
-3.12
-3.39
-3.60
-3.85
-4.28
-5.08
-6.36
-8.07
-9.97
-11.69
-12.79
-13.00
-12.26
-10.77
-8.92
-7.09
-5.55
-4.38
-3.53
-2.89
-2.42
-2.12
-1.97
-1.91
-1.84
-1.62
-1.20
-0.67
-0.21
0.02
-0.07
-0.41
-0.83
-1.16
-1.31
-1.36
-1.42
-1.64
-2.10
-2.82
-3.75
-4.84
-6.00
-7.14
-8.15
-8.88
-9.24
-9.15
-8.60
-7.66
-6.44
-5.11
-3.85
-2.83
-2.14
-1.73
-1.50
-1.33
-1.19
-1.19
-1.53
-2.35
-3.71
-5.50
-7.53
-9.62
-11.64
-13.51
-15.15
-16.44
-17.31
-17.79
-18.12
-18.58
-19.36
-20.36
-21.16
-21.19
-19.99
-17.44
-13.77
-9.41
-4.72
0.22
5.66
12.04
19.68
28.45
37.65
46.02
52.15
54.86
53.64
48.79
41.37
32.95
25.27
20.00
18.45
21.23
28.08
37.82
48.67
58.83
67.09
73.13
77.27
79.84
80.52
78.25
71.69
60.14
44.33
26.60
10.25
-1.48
-6.63
-5.10
1.48
10.50
19.20
25.36
27.62
25.50
19.47
10.81
1.34
-7.01
-12.87
-15.95
-17.09
-17.92
-20.09
-24.55
-31.25
-39.30
-47.55
-55.10
-61.50
-66.70
-70.77
-73.65
-75.20
-75.32
-74.08
-71.73
-68.57
-64.73
-60.04
-54.12
-46.73
-38.17
-29.51
-22.37
-18.39
-18.55
-22.67
-29.37
-36.54
-42.07
-44.56
-43.58
-39.49
-33.00
-24.77
-15.24
-4.80
5.89
15.82
23.78
28.84
30.74
30.06
27.93
25.50
23.61
22.57
22.37
22.90
24.00
25.38
26.48
26.55
24.95
21.55
16.90
11.97
7.66
4.29
1.46
-1.65
-5.66
-10.61
-15.94
-20.81
-24.58
-27.06
-28.46
-29.16
-29.52
-29.72
-29.89
-30.14
-30.60
-31.45
-32.81
-34.73
-37.19
-40.08
-43.15
-46.10
-48.58
-50.42
-51.62
-52.40
-53.07
-53.82
-54.68
-55.47
-55.97
-55.96
-55.23
-53.57
-50.78
-46.74
-41.53
-35.39
-28.66
-21.58
-14.18
-6.38
1.86
10.36
18.69
26.37
33.10
38.85
43.69
47.64
50.48
51.83
51.49
49.69
47.22
45.22
44.77
46.44
50.04
54.60
58.74
61.08
60.75
57.66
52.59
46.86
41.98
39.08
38.61
40.15
42.69
44.97
45.98
45.24
42.85
39.35
35.39
31.43
27.69
24.23
21.17
18.87
17.85
18.55
21.01
24.71
28.63
31.65
32.96
32.30
29.99
26.69
23.00
19.28
15.61
11.92
8.28
4.92
2.17
0.25
-0.91
-1.67
-2.53
-3.82
-5.58
-7.55
-9.41
-10.97
-12.25
-13.38
-14.50
-15.59
-16.57
-17.39
-18.13
-18.95
-19.94
-20.92
-21.46
-21.07
-19.48
-16.81
-13.54
-10.26
-7.27
-4.49
-1.46
2.35
7.19
12.87
18.79
24.18
28.41
31.27
32.98
34.06
35.08
36.40
38.04
39.75
41.07
41.61
41.13
39.55
36.96
33.58
29.67
25.59
21.73
18.45
15.99
14.38
13.46
13.00
12.79
12.70
12.65
12.53
12.16
11.29
9.79
7.75
5.51
3.51
2.12
1.44
1.33
1.52
1.76
1.94
2.01
1.89
1.41
0.34
-1.45
-3.80
-6.30
-8.40
-9.68
-10.04
-9.71
-9.09
-8.56
-8.23
-7.94
-7.43
-6.47
-5.07
-3.46
-2.04
-1.19
-1.16
-2.07
-3.85
-6.40
-9.61
-13.41
-17.70
-22.34
-27.18
-32.13
-37.25
-42.68
-48.62
-55.12
-61.92
-68.43
-73.81
-77.26
-78.25
-76.63
-72.53
-66.26
-58.19
-48.82
-38.64
-28.16
-17.81
-7.82
1.85
11.61
21.77
32.21
42.22
50.88
57.46
61.62
63.49
63.51
62.57
61.45
60.38
58.93
56.44
52.34
46.23
38.01
27.92
17.07
6.78
-2.17
-9.72
-16.03
-21.11
-24.70
-26.49
-26.26
-23.22
-16.81
-7.38
3.78
15.27
26.17
36.13
45.28
48.54
42.88
29.96
15.15
2.98
-5.22
-10.51
-14.81
-19.91
-25.83
-32.52
-38.90
-43.79
-46.45
-46.47
-43.71
-38.46
-31.36
-23.32
-14.96
-6.45
2.05
10.16
17.44
23.37
27.38
28.89
27.60
24.07
19.55
15.14
11.15
7.01
1.88
-4.65
-12.09
-18.94
-23.26
-23.69
-20.49
-15.60
-11.69
-10.89
-13.27
-17.62
-21.75
-24.05
-24.31
-23.47
-22.69
-22.68
-23.49
-24.55
-25.36
-25.50
-24.83
-23.45
-21.59
-19.59
-17.77
-16.84
-16.44
-16.36
-16.41
-16.51
-16.59
-16.49
-15.99
-14.98
-13.60
-12.13
-11.15
-11.10
-12.17
-14.22
-16.89
-19.92
-22.93
-25.97
-29.18
-32.71
-36.49
-40.20
-43.35
-45.47
-46.18
-45.18
-42.42
-38.09
-32.81
-27.47
-22.98
-19.74
-17.32
-14.49
-9.77
-2.17
8.28
20.45
32.69
43.49
52.09
58.62
63.69
68.03
72.09
75.99
79.62
82.77
85.17
86.47
86.41
84.93
82.32
79.21
76.39
74.51
73.81
73.99
74.39
74.21
72.82
69.92
65.57
60.13
54.07
47.85
41.85
36.37
31.59
27.62
24.42
21.69
18.93
15.47
10.77
4.56
-3.10
-11.83
-21.27
-31.11
-41.16
-51.20
-60.84
-69.54
-76.77
-82.24
-85.95
-88.23
-89.47
-89.99
-89.93
-89.29
-88.07
-86.35
-84.31
-82.20
-80.28
-78.77
-77.75
-77.12
-76.50
-75.34
-73.09
-69.38
-64.22
-58.03
-51.43
-45.08
-39.44
-34.58
-30.22
-25.89
-21.15
-15.82
-10.11
-4.53
0.36
4.25
7.27
10.03
13.35
17.97
24.19
31.82
40.25
48.78
56.82
64.06
70.37
75.72
80.07
83.30
85.30
86.11
85.93
85.09
83.97
82.84
81.75
80.59
79.14
77.18
74.61
71.36
67.42
62.83
57.70
52.20
46.56
40.92
35.30
29.43
22.93
15.53
7.22
-1.56
-10.04
-17.35
-22.82
-26.21
-27.72
-27.88
-27.33
-26.63
-26.12
-25.98
-26.22
-26.77
-27.54
-28.47
-29.48
-30.50
-31.47
-32.33
-33.03
-33.59
-34.05
-34.47
-34.85
-35.14
-35.19
-34.83
-33.95
-32.56
-30.87
-29.24
-27.99
-27.32
-27.14
-27.10
-26.67
-25.37
-22.85
-19.13
-14.52
-9.56
-4.84
-0.81
2.33
4.58
6.10
7.08
7.63
7.81
7.64
7.18
6.53
5.79
5.02
4.26
3.56
2.95
2.53
2.37
2.54
3.00
3.66
4.38
5.02
5.42
5.47
5.14
4.51
3.79
3.29
3.33
4.11
5.64
7.72
10.03
12.23
14.04
15.27
15.85
15.76
15.10
14.03
12.76
11.46
10.18
8.82
7.17
5.05
2.39
-0.60
-3.62
-6.34
-8.62
-10.55
-12.37
-14.33
-16.51
-18.80
-21.01
-23.04
-24.90
-26.72
-28.54
-30.21
-31.42
-31.77
-31.00
-29.12
-26.33
-22.94
-19.23
-15.36
-11.43
-7.53
-3.81
-0.46
2.35
4.55
6.24
7.66
9.10
10.73
12.53
14.25
15.56
16.38
16.93
17.77
19.55
22.66
27.01
31.98
36.68
40.27
42.30
42.81
42.21
40.98
39.46
37.65
35.30
32.04
27.61
22.14
16.16
10.61
6.52
4.66
5.29
8.00
11.88
15.83
18.88
20.47
20.45
18.94
16.15
12.31
7.61
2.35
-3.03
-8.09
-12.45
-15.95
-18.71
-20.98
-23.07
-25.17
-27.32
-29.36
-31.06
-32.20
-32.69
-32.63
-32.30
-32.04
-32.08
-32.43
-32.87
-33.04
-32.65
-31.62
-30.17
-28.66
-27.39
-26.41
-25.51
-24.27
-22.36
-19.63
-16.28
-12.68
-9.25
-6.30
-3.90
-1.95
-0.29
1.17
2.37
3.16
3.42
3.15
2.47
1.62
0.82
0.17
-0.39
-0.99
-1.75
-2.69
-3.68
-4.52
-5.10
-5.39
-5.49
-5.54
-5.67
-5.89
-6.11
-6.21
-6.11
-5.78
-5.28
-4.66
-3.97
-3.12
-2.01
-0.51
1.42
3.66
5.93
7.93
9.38
10.19
10.43
10.26
9.83
9.17
8.25
7.01
5.51
3.92
2.45
1.22
0.22
-0.68
-1.65
-2.71
-3.76
-4.61
-5.15
-5.36
-5.44
-5.61
-6.06
-6.82
-7.76
-8.67
-9.31
-9.48
-9.03
-7.88
-6.08
-3.77
-1.18
1.40
3.70
5.56
6.92
7.80
8.22
8.22
7.81
7.05
6.08
5.09
4.22
3.55
3.00
2.45
1.80
1.07
0.30
-0.44
-1.16
-1.89
-2.67
-3.46
-4.13
-4.58
-4.81
-4.96
-5.27
-5.94
-7.02
-8.33
-9.49
-10.10
-9.86
-8.71
-6.84
-4.57
-2.23
-0.07
1.82
3.45
4.82
5.92
6.67
7.01
6.93
6.58
6.12
5.73
5.48
5.36
5.24
5.01
4.63
4.12
3.53
2.91
2.28
1.66
1.05
0.50
0.08
-0.23
-0.50
-0.95
-1.79
-3.12
-4.84
-6.64
-8.10
-8.88
-8.80
-7.88
-6.25
-4.05
-1.38
1.70
5.03
8.36
11.27
13.37
14.40
14.36
13.50
12.22
10.94
9.86
9.00
8.21
7.32
6.28
5.16
4.13
3.28
2.59
1.89
1.02
-0.11
-1.41
-2.72
-3.90
-4.93
-5.94
-7.07
-8.42
-9.94
-11.41
-12.52
-13.00
-12.66
-11.45
-9.42
-6.71
-3.53
-0.18
3.05
5.88
8.11
9.66
10.56
10.93
10.91
10.66
10.29
9.86
9.38
8.81
8.09
7.25
6.35
5.55
5.01
4.75
4.62
4.40
3.86
2.96
1.86
0.83
0.08
-0.39
-0.83
-1.60
-2.96
-4.90
-7.11
-9.10
-10.38
-10.63
-9.82
-8.08
-5.65
-2.79
0.24
3.17
5.70
7.60
8.77
9.29
9.40
9.36
9.39
9.53
9.74
9.89
9.85
9.56
9.05
8.45
7.90
7.56
7.44
7.44
7.35
6.97
6.24
5.30
4.41
3.80
3.51
3.37
3.08
2.40
1.23
-0.30
-1.88
-3.14
-3.73
-3.44
-2.24
-0.36
1.83
3.92
5.61
6.78
7.53
7.95
8.11
7.92
7.25
6.03
4.42
2.73
1.36
0.49
0.08
-0.15
-0.54
-1.24
-2.20
-3.13
-3.74
-3.87
-3.57
-3.06
-2.57
-2.22
-2.01
-1.88
-1.86
-2.04
-2.52
-3.23
-3.91
-4.15
-3.59
-2.10
0.11
2.67
5.20
7.47
9.46
11.21
12.71
13.84
14.46
14.46
13.95
13.14
12.31
11.63
11.12
10.65
10.10
9.41
8.60
7.84
7.24
6.85
6.63
6.43
6.11
5.57
4.79
3.84
2.82
1.79
0.82
-0.09
-0.89
-1.52
-1.89
-1.99
-1.90
-1.78
-1.81
-2.09
-2.62
-3.28
-3.92
-4.42
-4.75
-4.95
-5.13
-5.40
-5.79
-6.32
-6.94
-7.64
-8.43
-9.41
-10.66
-12.28
-14.22
-16.34
-18.42
-20.25
-21.75
-22.95
-23.99
-25.02
-26.10
-27.22
-28.28
-29.17
-29.81
-30.14
-30.12
-29.76
-29.13
-28.33
-27.51
-26.73
-25.96
-25.07
-23.88
-22.27
-20.24
-17.93
-15.45
-12.89
-10.21
-7.38
-4.39
-1.37
1.50
4.08
6.34
8.40
10.40
12.48
14.68
16.93
19.11
21.15
22.96
24.50
25.76
26.66
27.17
27.28
27.12
26.92
26.98
27.58
28.79
30.48
32.24
33.60
34.24
34.10
33.43
32.60
31.86
31.21
30.45
29.32
27.68
25.60
23.29
20.98
18.80
16.71
14.60
12.40
10.14
7.94
5.95
4.21
2.67
1.14
-0.54
-2.50
-4.71
-7.03
-9.24
-11.09
-12.45
-13.31
-13.78
-14.06
-14.30
-14.62
-14.99
-15.34
-15.56
-15.62
-15.55
-15.40
-15.17
-14.78
-14.14
-13.20
-12.05
-10.86
-9.85
-9.13
-8.65
-8.28
-7.84
-7.28
-6.71
-6.29
-6.21
-6.49
-7.03
-7.58
-7.86
-7.68
-6.93
-5.68
-4.11
-2.43
-0.87
0.41
1.30
1.78
1.89
1.74
1.45
1.11
0.79
0.50
0.26
0.05
-0.17
-0.43
-0.84
-1.45
-2.32
-3.41
-4.60
-5.75
-6.67
-7.23
-7.41
-7.26
-6.96
-6.66
-6.51
-6.47
-6.41
-6.05
-5.19
-3.73
-1.81
0.30
2.29
3.92
5.06
5.70
5.90
5.74
5.32
4.78
4.27
3.91
3.75
3.69
3.59
3.34
2.94
2.48
2.11
1.91
1.83
1.75
1.52
1.05
0.34
-0.60
-1.71
-2.93
-4.17
-5.26
-5.92
-5.86
-4.93
-3.16
-0.82
1.69
4.02
6.00
7.60
8.93
10.06
10.94
11.40
11.27
10.46
9.08
7.36
5.58
3.94
2.51
1.21
-0.09
-1.45
-2.80
-4.02
-4.97
-5.62
-6.10
-6.60
-7.30
-8.22
-9.20
-9.95
-10.16
-9.68
-8.50
-6.79
-4.79
-2.75
-0.85
0.82
2.20
3.25
3.97
4.34
4.29
3.80
2.88
1.60
0.16
-1.22
-2.35
-3.12
-3.61
-3.92
-4.14
-4.29
-4.25
-3.97
-3.47
-2.92
-2.59
-2.73
-3.40
-4.46
-5.57
-6.34
-6.47
-5.85
-4.56
-2.82
-0.89
1.00
2.71
4.14
5.23
5.94
6.21
6.04
5.52
4.80
4.12
3.65
3.41
3.31
3.17
2.84
2.33
1.75
1.31
1.13
1.16
1.23
1.11
0.62
-0.25
-1.38
-2.56
-3.60
-4.39
-4.83
-4.90
-4.56
-3.81
-2.71
-1.35
0.10
1.47
2.57
3.27
3.50
3.32
2.90
2.46
2.19
2.18
2.43
2.83
3.33
3.88
4.52
5.22
5.94
6.55
6.95
7.13
7.21
7.33
7.64
8.10
8.58
8.91
8.96
8.77
8.55
8.53
8.91
9.71
10.79
11.87
12.66
13.00
12.93
12.71
12.61
12.77
13.03
12.94
11.98
9.79
6.38
2.16
-2.24
-6.29
-9.69
-12.45
-14.76
-16.79
-18.60
-20.12
-21.27
-22.05
-22.57
-22.98
-23.40
-23.84
-24.19
-24.30
-24.06
-23.44
-22.49
-21.26
-19.80
-18.13
-16.29
-14.37
-12.48
-10.75
-9.26
-7.98
-6.80
-5.59
-4.24
-2.69
-0.99
0.80
2.60
4.32
5.90
7.34
8.68
9.95
11.20
12.39
13.42
14.18
14.58
14.68
14.63
14.67
15.00
15.65
16.41
16.97
17.01
16.40
15.23
13.75
12.24
10.87
9.62
8.36
6.94
5.32
3.64
2.09
0.85
-0.06
-0.72
-1.33
-2.03
-2.86
-3.75
-4.59
-5.29
-5.88
-6.44
-7.12
-7.96
-8.84
-9.55
-9.78
-9.34
-8.22
-6.60
-4.81
-3.14
-1.78
-0.80
-0.14
0.26
0.42
0.31
-0.10
-0.78
-1.67
-2.61
-3.46
-4.11
-4.49
-4.63
-4.60
-4.49
-4.39
-4.35
-4.37
-4.47
-4.66
-5.00
-5.49
-6.08
-6.62
-6.95
-6.89
-6.40
-5.52
-4.39
-3.15
-1.90
-0.72
0.34
1.18
1.68
1.77
1.46
0.86
0.10
-0.67
-1.35
-1.88
-2.22
-2.35
-2.31
-2.15
-2.01
-1.99
-2.13
-2.43
-2.82
-3.27
-3.79
-4.38
-5.02
-5.58
-5.86
-5.64
-4.79
-3.35
-1.48
0.53
2.39
3.84
4.73
5.04
4.88
4.39
3.76
3.12
2.56
2.12
1.82
1.64
1.52
1.35
1.03
0.51
-0.16
-0.84
-1.44
-1.91
-2.33
-2.85
-3.62
-4.65
-5.83
-6.91
-7.63
-7.78
-7.24
-6.07
-4.41
-2.48
-0.54
1.23
2.71
3.87
4.68
5.15
5.26
5.02
4.50
3.88
3.31
2.95
2.82
2.81
2.78
2.57
2.15
1.55
0.86
0.15
-0.56
-1.31
-2.18
-3.21
-4.41
-5.73
-7.07
-8.25
-9.08
-9.37
-9.01
-7.99
-6.36
-4.28
-1.92
0.54
2.91
5.05
6.82
8.14
8.97
9.33
9.29
8.96
8.43
7.76
6.98
6.17
5.39
4.75
4.32
4.09
3.93
3.64
3.04
2.08
0.89
-0.29
-1.23
-1.88
-2.34
-2.82
-3.52
-4.52
-5.76
-7.04
-8.11
-8.79
-8.97
-8.61
-7.74
-6.40
-4.62
-2.48
-0.06
2.49
4.99
7.24
9.08
10.40
11.16
11.38
11.14
10.54
9.71
8.81
7.99
7.33
6.85
6.48
6.16
5.81
5.48
5.20
5.02
4.89
4.66
4.15
3.21
1.83
0.17
-1.48
-2.89
-3.93
-4.67
-5.36
-6.22
-7.37
-8.67
-9.80
-10.37
-10.08
-8.82
-6.72
-4.08
-1.23
1.51
3.94
5.94
7.48
8.53
9.14
9.34
9.20
8.80
8.24
7.65
7.13
6.72
6.41
6.12
5.77
5.31
4.76
4.17
3.61
3.08
2.53
1.86
1.04
0.10
-0.82
-1.64
-2.32
-2.95
-3.67
-4.64
-5.90
-7.32
-8.66
-9.59
-9.83
-9.26
-7.94
-6.06
-3.92
-1.75
0.29
2.12
3.68
4.89
5.71
6.13
6.25
6.22
6.21
6.27
6.33
6.25
5.94
5.40
4.74
4.12
3.59
3.13
2.60
1.96
1.20
0.44
-0.18
-0.63
-0.93
-1.20
-1.57
-2.14
-2.90
-3.84
-4.87
-5.90
-6.80
-7.42
-7.59
-7.20
-6.20
-4.69
-2.82
-0.81
1.15
2.89
4.32
5.39
6.07
6.41
6.44
6.26
5.93
5.51
5.00
4.44
3.88
3.41
3.15
3.17
3.44
3.86
4.23
4.38
4.19
3.64
2.82
1.85
0.87
-0.02
-0.82
-1.54
-2.27
-3.09
-4.10
-5.35
-6.83
-8.38
-9.82
-10.86
-11.27
-10.88
-9.65
-7.68
-5.14
-2.25
0.69
3.43
5.71
7.36
8.32
8.69
8.63
8.33
7.95
7.58
7.22
6.86
6.51
6.15
5.78
5.38
4.93
4.45
4.00
3.64
3.39
3.20
3.00
2.70
2.26
1.67
0.95
0.11
-0.85
-1.96
-3.19
-4.46
-5.64
-6.53
-7.01
-7.01
-6.55
-5.73
-4.65
-3.41
-2.06
-0.65
0.74
2.02
3.02
3.63
3.79
3.54
3.01
2.35
1.67
1.07
0.57
0.14
-0.26
-0.69
-1.15
-1.61
-2.01
-2.33
-2.56
-2.73
-2.91
-3.11
-3.24
-3.24
-3.03
-2.68
-2.35
-2.27
-2.63
-3.46
-4.65
-5.99
-7.27
-8.33
-9.11
-9.54
-9.48
-8.76
-7.28
-5.07
-2.41
0.24
2.46
3.97
4.78
5.10
5.17
5.18
5.19
5.18
5.12
5.04
4.99
4.98
4.98
4.94
4.81
4.64
4.48
4.38
4.31
4.17
3.89
3.41
2.78
2.06
1.33
0.63
-0.01
-0.62
-1.20
-1.77
-2.35
-3.00
-3.71
-4.45
-5.16
-5.75
-6.25
-6.76
-7.42
-8.34
-9.47
-10.57
-11.36
-11.57
-11.07
-9.92
-8.27
-6.32
-4.27
-2.26
-0.42
1.16
2.44
3.47
4.28
4.95
5.47
5.86
6.10
6.23
6.31
6.38
6.42
6.33
6.03
5.46
4.71
3.94
3.30
2.87
2.62
2.45
2.26
2.03
1.74
1.36
0.83
0.09
-0.87
-1.93
-2.91
-3.65
-4.04
-4.18
-4.21
-4.33
-4.67
-5.28
-6.18
-7.28
-8.47
-9.55
-10.26
-10.37
-9.73
-8.39
-6.54
-4.42
-2.26
-0.19
1.76
3.56
5.17
6.53
7.59
8.33
8.73
8.79
8.51
7.89
7.02
6.07
5.21
4.57
4.18
3.95
3.78
3.56
3.28
2.90
2.38
1.64
0.62
-0.66
-2.05
-3.35
-4.37
-5.04
-5.41
-5.60
-5.74
-5.98
-6.41
-7.07
-7.94
-8.89
-9.69
-10.09
-9.87
-8.96
-7.45
-5.54
-3.45
-1.36
0.59
2.28
3.61
4.49
4.92
5.01
4.94
4.90
4.99
5.21
5.47
5.70
5.87
6.03
6.27
6.61
7.02
7.38
7.55
7.41
6.92
6.17
5.27
4.41
3.70
3.23
2.96
2.80
2.62
2.29
1.73
0.89
-0.24
-1.60
-3.09
-4.50
-5.58
-6.09
-5.85
-4.85
-3.24
-1.25
0.85
2.87
4.65
6.11
7.17
7.74
7.77
7.31
6.52
5.61
4.75
3.98
3.23
2.37
1.32
0.09
-1.19
-2.33
-3.20
-3.72
-3.91
-3.87
-3.75
-3.76
-4.05
-4.61
-5.30
-5.83
-5.94
-5.55
-4.84
-4.22
-4.09
-4.68
-5.93
-7.47
-8.83
-9.56
-9.44
-8.47
-6.86
-4.88
-2.80
-0.84
0.90
2.37
3.53
4.37
4.91
5.20
5.35
5.50
5.74
6.05
6.30
6.29
5.90
5.18
4.30
3.49
2.83
2.27
1.67
0.93
0.09
-0.67
-1.19
-1.40
-1.48
-1.67
-2.19
-3.08
-4.23
-5.44
-6.53
-7.40
-8.05
-8.48
-8.65
-8.49
-7.95
-7.03
-5.83
-4.48
-3.12
-1.83
-0.65
0.45
1.48
2.45
3.33
4.05
4.53
4.71
4.58
4.18
3.62
2.99
2.40
1.92
1.57
1.35
1.20
1.05
0.83
0.48
-0.00
-0.59
-1.26
-1.95
-2.61
-3.21
-3.72
-4.17
-4.67
-5.39
-6.46
-7.96
-9.73
-11.46
-12.76
-13.30
-12.91
-11.66
-9.78
-7.58
-5.33
-3.18
-1.20
0.61
2.28
3.81
5.17
6.28
7.11
7.61
7.83
7.81
7.59
7.18
6.67
6.15
5.77
5.71
6.08
6.83
7.79
8.66
9.14
8.96
8.03
6.41
4.34
2.16
0.23
-1.22
-2.17
-2.80
-3.38
-4.14
-5.10
-6.10
-6.84
-7.05
-6.56
-5.42
-3.76
-1.79
0.34
2.57
4.87
7.20
9.46
11.52
13.20
14.40
15.07
15.25
15.06
14.57
13.84
12.90
11.75
10.43
9.02
7.61
6.29
5.07
3.94
2.83
1.69
0.46
-0.84
-2.21
-3.60
-4.96
-6.25
-7.40
-8.38
-9.16
-9.80
-10.44
-11.21
-12.20
-13.35
-14.46
-15.18
-15.20
-14.34
-12.60
-10.22
-7.53
-4.85
-2.44
-0.43
1.18
2.42
3.32
3.88
4.09
3.97
3.60
3.09
2.55
2.03
1.54
1.02
0.49
0.03
-0.22
-0.14
0.18
0.48
0.44
-0.21
-1.47
-3.10
-4.75
-6.19
-7.37
-8.47
-9.66
-10.98
-12.22
-13.00
-12.97
-11.97
-10.09
-7.65
-5.05
-2.64
-0.69
0.71
1.59
2.04
2.20
2.19
2.03
1.74
1.34
0.89
0.54
0.40
0.45
0.57
0.54
0.21
-0.44
-1.25
-1.96
-2.41
-2.60
-2.69
-2.93
-3.50
-4.45
-5.69
-7.08
-8.47
-9.75
-10.78
-11.33
-11.18
-10.14
-8.19
-5.51
-2.43
0.70
3.60
6.16
8.37
10.28
11.85
13.05
13.80
14.04
13.79
13.12
12.15
11.01
9.83
8.69
7.63
6.61
5.54
4.31
2.82
1.09
-0.77
-2.57
-4.10
-5.27
-6.09
-6.71
-7.35
-8.17
-9.25
-10.60
-12.12
-13.78
-15.52
-17.31
-19.04
-20.56
-21.61
-21.95
-21.38
-19.80
-17.27
-13.94
-10.06
-5.92
-1.75
2.25
5.96
9.30
12.28
14.90
17.22
19.32
21.28
23.16
24.95
26.59
27.98
29.03
29.69
29.98
29.93
29.52
28.73
27.55
26.03
24.26
22.37
20.38
18.27
15.93
13.28
10.35
7.27
4.30
1.68
-0.44
-2.10
-3.47
-4.84
-6.37
-8.11
-9.88
-11.38
-12.36
-12.61
-12.11
-10.90
-9.03
-6.54
-3.50
-0.14
3.26
6.31
8.76
10.58
11.97
13.17
14.34
15.41
16.13
16.25
15.64
14.36
12.66
10.76
8.85
7.01
5.30
3.75
2.43
1.37
0.49
-0.34
-1.33
-2.57
-4.09
-5.77
-7.41
-8.78
-9.71
-10.10
-10.01
-9.65
-9.29
-9.23
-9.66
-10.60
-11.89
-13.30
-14.63
-15.80
-16.84
-17.81
-18.70
-19.39
-19.71
-19.43
-18.45
-16.77
-14.48
-11.70
-8.56
-5.16
-1.65
1.79
4.94
7.64
9.81
11.49
12.85
14.09
15.34
16.59
17.70
18.46
18.70
18.37
17.54
16.37
14.99
13.49
11.89
10.17
8.33
6.44
4.61
2.94
1.46
0.14
-1.10
-2.35
-3.61
-4.78
-5.77
-6.52
-7.08
-7.59
-8.22
-9.13
-10.36
-11.86
-13.51
-15.13
-16.55
-17.59
-18.06
-17.89
-17.04
-15.62
-13.83
-11.88
-9.92
-8.01
-6.15
-4.36
-2.71
-1.32
-0.29
0.35
0.67
0.79
0.76
0.58
0.17
-0.49
-1.33
-2.20
-2.92
-3.36
-3.52
-3.49
-3.40
-3.33
-3.28
-3.23
-3.11
-2.91
-2.61
-2.29
-2.03
-1.93
-2.03
-2.31
-2.68
-2.99
-3.18
-3.26
-3.35
-3.61
-4.12
-4.81
-5.45
-5.72
-5.31
-4.11
-2.17
0.24
2.77
5.12
7.05
8.49
9.44
9.97
10.14
10.05
9.80
9.51
9.26
9.03
8.76
8.30
7.55
6.47
5.15
3.78
2.58
1.72
1.26
1.14
1.18
1.14
0.82
0.10
-0.93
-2.08
-3.12
-3.90
-4.42
-4.81
-5.26
-5.88
-6.67
-7.52
-8.25
-8.67
-8.63
-8.03
-6.90
-5.32
-3.47
-1.53
0.33
2.05
3.60
4.98
6.13
6.92
7.24
7.03
6.40
5.52
4.63
3.86
3.24
2.68
2.07
1.35
0.54
-0.26
-0.97
-1.55
-2.05
-2.57
-3.21
-3.96
-4.74
-5.38
-5.78
-5.87
-5.71
-5.47
-5.31
-5.40
-5.81
-6.50
-7.28
-7.91
-8.05
-7.49
-6.18
-4.24
-1.92
0.49
2.80
4.93
6.87
8.63
10.14
11.34
12.18
12.64
12.75
12.57
12.14
11.49
10.68
9.78
8.83
7.85
6.82
5.72
4.59
3.53
2.62
1.91
1.37
0.90
0.39
-0.19
-0.83
-1.46
-2.02
-2.50
-2.89
-3.22
-3.53
-3.91
-4.48
-5.34
-6.51
-7.85
-9.09
-9.88
-9.92
-9.08
-7.38
-4.99
-2.16
0.87
3.83
6.46
8.57
10.05
10.91
11.26
11.25
11.01
10.60
9.99
9.16
8.12
6.95
5.77
4.68
3.73
2.93
2.28
1.83
1.58
1.52
1.48
1.26
0.68
-0.34
-1.69
-3.15
-4.44
-5.43
-6.08
-6.47
-6.75
-7.04
-7.47
-8.13
-9.09
-10.33
-11.73
-13.04
-13.96
-14.19
-13.55
-11.97
-9.51
-6.35
-2.81
0.69
3.74
6.02
7.42
8.09
8.28
8.29
8.23
8.10
7.83
7.40
6.90
6.49
6.28
6.27
6.30
6.17
5.74
5.00
4.10
3.26
2.68
2.46
2.56
2.80
2.99
2.94
2.59
2.01
1.37
0.82
0.41
0.06
-0.41
-1.17
-2.30
-3.73
-5.31
-6.89
-8.35
-9.61
-10.54
-10.99
-10.74
-9.63
-7.66
-4.96
-1.81
1.43
4.46
7.04
9.08
10.56
11.52
12.01
12.12
11.90
11.45
10.82
10.03
9.08
7.98
6.75
5.43
4.10
2.85
1.77
0.89
0.22
-0.29
-0.76
-1.28
-1.96
-2.83
-3.87
-5.00
-6.16
-7.27
-8.28
-9.15
-9.88
-10.46
-11.00
-11.59
-12.34
-13.25
-14.23
-15.06
-15.48
-15.32
-14.49
-13.01
-10.99
-8.55
-5.86
-3.14
-0.62
1.51
3.17
4.35
5.13
5.59
5.78
5.84
5.91
6.17
6.68
7.33
7.85
7.93
7.48
6.67
5.91
5.58
5.84
6.53
7.28
7.74
7.76
7.42
6.90
6.33
5.73
4.94
3.86
2.43
0.75
-1.04
-2.82
-4.52
-6.11
-7.58
-8.85
-9.74
-10.08
-9.70
-8.55
-6.73
-4.47
-2.08
0.19
2.18
3.85
5.26
6.44
7.34
7.89
7.98
7.59
6.80
5.78
4.69
3.62
2.59
1.54
0.43
-0.75
-1.92
-3.00
-3.92
-4.73
-5.56
-6.59
-7.97
-9.71
-11.77
-14.02
-16.39
-18.86
-21.43
-24.03
-26.48
-28.58
-30.13
-31.05
-31.42
-31.35
-30.89
-29.96
-28.35
-25.83
-22.28
-17.81
-12.72
-7.47
-2.45
2.09
6.11
9.72
13.05
16.12
18.79
20.85
22.12
22.57
22.35
21.76
21.09
20.50
20.02
19.60
19.16
18.67
18.14
17.61
17.11
16.57
15.93
15.06
13.89
12.43
10.80
9.20
7.83
6.77
5.98
5.27
4.40
3.18
1.53
-0.50
-2.74
-5.00
-7.03
-8.63
-9.59
-9.82
-9.33
-8.32
-7.04
-5.74
-4.55
-3.46
-2.41
-1.41
-0.53
0.11
0.43
0.48
0.41
0.41
0.58
0.91
1.25
1.47
1.47
1.29
1.06
0.94
1.06
1.49
2.13
2.81
3.30
3.42
3.12
2.47
1.62
0.68
-0.29
-1.29
-2.37
-3.54
-4.78
-6.07
-7.42
-8.85
-10.33
-11.79
-13.03
-13.85
-14.05
-13.56
-12.40
-10.68
-8.62
-6.46
-4.46
-2.83
-1.66
-0.93
-0.46
-0.08
0.36
0.90
1.52
2.15
2.75
3.29
3.78
4.18
4.48
4.69
4.88
5.13
5.51
6.05
6.69
7.36
7.99
8.56
9.10
9.67
10.31
11.05
11.90
12.80
13.68
14.43
14.97
15.25
15.29
15.20
15.07
14.95
14.79
14.51
14.01
13.29
12.48
11.76
11.32
11.25
11.49
11.82
11.96
11.65
10.75
9.22
7.11
4.52
1.52
-1.81
-5.41
-9.12
-12.80
-16.23
-19.21
-21.60
-23.30
-24.32
-24.70
-24.53
-23.93
-22.99
-21.78
-20.36
-18.78
-17.09
-15.37
-13.71
-12.19
-10.88
-9.82
-9.05
-8.60
-8.42
-8.38
-8.28
-7.91
-7.11
-5.83
-4.11
-2.06
0.20
2.51
4.73
6.74
8.45
9.84
10.93
11.79
12.41
12.77
12.79
12.45
11.82
11.02
10.19
9.37
8.54
7.64
6.71
5.84
5.16
4.72
4.41
4.01
3.32
2.27
0.99
-0.28
-1.33
-2.09
-2.69
-3.37
-4.31
-5.53
-6.88
-8.09
-8.86
-8.97
-8.36
-7.10
-5.34
-3.31
-1.18
0.87
2.70
4.22
5.39
6.26
6.91
7.44
7.86
8.12
8.06
7.60
6.75
5.69
4.67
3.88
3.38
3.10
2.88
2.63
2.35
2.06
1.75
1.33
0.69
-0.21
-1.28
-2.33
-3.20
-3.84
-4.41
-5.13
-6.20
-7.62
-9.19
-10.59
-11.44
-11.50
-10.66
-9.00
-6.73
-4.15
-1.61
0.67
2.52
3.93
4.96
5.67
6.13
6.38
6.50
6.57
6.68
6.85
6.98
6.97
6.68
6.12
5.40
4.67
4.11
3.74
3.51
3.28
2.94
2.44
1.81
1.09
0.32
-0.50
-1.40
-2.41
-3.51
-4.66
-5.79
-6.82
-7.73
-8.54
-9.26
-9.84
-10.14
-9.94
-9.10
-7.54
-5.40
-2.91
-0.40
1.88
3.79
5.32
6.57
7.68
8.75
9.80
10.77
11.57
12.12
12.47
12.69
12.89
13.12
13.35
13.50
13.53
13.43
13.27
13.08
12.79
12.26
11.33
9.95
8.24
6.43
4.73
3.28
2.00
0.75
-0.66
-2.31
-4.19
-6.09
-7.75
-8.89
-9.30
-8.89
-7.74
-6.06
-4.12
-2.17
-0.45
0.90
1.80
2.25
2.36
2.29
2.21
2.23
2.34
2.40
2.24
1.71
0.82
-0.31
-1.47
-2.48
-3.28
-3.89
-4.40
-4.87
-5.33
-5.77
-6.17
-6.53
-6.87
-7.24
-7.63
-8.05
-8.45
-8.81
-9.12
-9.39
-9.62
-9.76
-9.70
-9.29
-8.39
-6.96
-5.05
-2.85
-0.63
1.39
3.09
4.46
5.57
6.49
7.20
7.63
7.68
7.28
6.49
5.45
4.33
3.28
2.37
1.57
0.84
0.11
-0.64
-1.46
-2.40
-3.51
-4.83
-6.32
-7.89
-9.42
-10.87
-12.27
-13.72
-15.35
-17.21
-19.25
-21.28
-23.09
-24.46
-25.27
-25.45
-25.06
-24.19
-23.05
-21.87
-20.91
-20.37
-20.37
-20.90
-21.86
-23.14
-24.69
-26.48
-28.53
-30.75
-32.99
-34.95
-36.23
-36.36
-34.87
-31.41
-25.88
-18.62
-10.34
-2.05
5.26
10.87
14.57
16.67
17.82
18.72
19.91
21.63
23.77
26.00
27.86
28.90
28.81
27.53
25.26
22.47
19.66
17.24
15.33
13.75
12.15
10.21
7.79
5.00
2.16
-0.37
-2.30
-3.41
-3.50
-2.33
0.37
4.81
10.90
18.19
25.92
33.24
39.49
44.40
48.15
51.11
53.58
55.59
56.83
56.87
55.35
52.19
47.67
42.26
36.48
30.75
25.34
20.43
16.22
12.91
10.67
9.44
8.85
8.29
6.98
4.37
0.28
-4.98
-10.71
-16.08
-20.48
-23.68
-25.89
-27.56
-29.11
-30.75
-32.35
-33.56
-34.09
-33.84
-32.97
-31.88
-30.97
-30.48
-30.42
-30.61
-30.88
-31.17
-31.49
-31.85
-32.13
-32.06
-31.29
-29.50
-26.51
-22.46
-17.71
-12.75
-8.05
-3.90
-0.49
2.06
3.76
4.74
5.12
5.02
4.61
4.18
4.03
4.16
4.36
4.34
4.06
3.49
2.77
2.22
2.42
3.95
6.89
10.88
15.21
19.35
22.50
23.99
23.43
21.05
17.50
13.21
8.44
3.34
-1.50
-5.91
-10.02
-14.31
-19.12
-22.57
-23.37
-21.41
-20.49
-21.53
-24.60
-28.11
-31.34
-33.75
-34.95
-35.23
-35.27
-35.76
-36.53
-37.40
-37.96
-37.74
-35.71
-30.64
-21.95
-9.81
4.87
21.23
37.92
53.44
64.76
68.75
64.42
53.78
40.37
27.16
15.86
6.83
-0.23
-5.65
-9.27
-10.57
-9.53
-6.77
-3.58
-0.99
0.40
0.52
-0.13
-0.69
-0.17
1.92
5.41
9.76
14.63
20.17
25.66
30.87
35.75
40.49
45.11
49.37
52.92
55.53
57.10
57.39
56.20
53.38
49.32
44.56
39.62
34.92
30.64
26.75
22.67
17.88
10.80
1.82
-7.04
-13.62
-17.32
-19.19
-20.85
-23.88
-28.85
-35.31
-41.87
-47.30
-50.93
-52.82
-54.51
-56.15
-57.71
-58.84
-58.92
-57.14
-53.09
-46.78
-38.69
-29.49
-19.74
-10.28
-1.97
4.42
8.69
10.55
10.32
8.94
7.77
8.05
10.15
13.48
16.81
18.83
18.58
15.77
10.66
3.93
-3.45
-10.39
-15.60
-17.69
-15.44
-8.33
3.09
17.05
30.89
41.96
48.29
49.25
45.52
38.72
30.64
22.76
15.84
9.94
4.69
-0.44
-5.75
-11.26
-16.69
-21.62
-25.68
-28.66
-30.50
-31.23
-30.85
-29.33
-26.72
-23.26
-19.38
-15.64
-12.55
-10.32
-8.81
-7.70
-6.58
-5.26
-3.71
-2.11
-0.66
0.48
1.26
1.74
2.06
2.37
2.78
3.32
3.91
4.41
4.70
4.67
4.28
3.58
2.64
1.61
0.59
-0.28
-0.95
-1.40
-1.72
-2.09
-2.67
-3.51
-4.55
-5.59
-6.38
-6.69
-6.42
-5.56
-4.19
-2.45
-0.50
1.50
3.39
5.05
6.40
7.39
8.02
8.33
8.37
8.19
7.86
7.45
7.00
6.55
6.08
5.56
4.95
4.25
3.50
2.79
2.22
1.79
1.46
1.11
0.60
-0.13
-1.09
-2.20
-3.41
-4.68
-5.99
-7.35
-8.72
-10.02
-11.11
-11.82
-11.98
-11.46
-10.21
-8.26
-5.79
-3.04
-0.32
2.10
4.03
5.44
6.37
6.97
7.35
7.58
7.69
7.66
7.45
7.05
6.49
5.86
5.27
4.83
4.63
4.63
4.73
4.78
4.66
4.32
3.78
3.08
2.28
1.37
0.31
-0.91
-2.27
-3.74
-5.31
-6.98
-8.68
-10.29
-11.57
-12.23
-12.07
-11.04
-9.28
-7.04
-4.57
-2.04
0.44
2.82
5.00
6.88
8.37
9.43
10.06
10.35
10.35
10.15
9.80
9.38
8.97
8.62
8.35
8.14
7.95
7.75
7.54
7.34
7.13
6.91
6.62
6.17
5.49
4.58
3.45
2.22
0.98
-0.18
-1.23
-2.22
-3.26
-4.48
-5.93
-7.61
-9.43
-11.22
-12.79
-13.90
-14.39
-14.09
-12.94
-10.99
-8.39
-5.44
-2.45
0.27
2.55
4.33
5.68
6.71
7.48
8.01
8.28
8.33
8.23
8.08
7.94
7.80
7.59
7.25
6.77
6.22
5.68
5.20
4.72
4.18
3.51
2.75
1.98
1.33
0.82
0.38
-0.10
-0.73
-1.57
-2.63
-3.94
-5.52
-7.40
-9.51
-11.61
-13.31
-14.19
-13.92
-12.43
-9.90
-6.73
-3.38
-0.23
2.52
4.80
6.63
8.08
9.18
9.92
10.33
10.38
10.13
9.60
8.86
7.97
7.03
6.12
5.33
4.68
4.17
3.77
3.44
3.10
2.68
2.09
1.25
0.16
-1.15
-2.58
-4.01
-5.36
-6.61
-7.84
-9.18
-10.71
-12.36
-13.89
-14.96
-15.24
-14.54
-12.91
-10.55
-7.78
-4.85
-1.90
0.99
3.71
6.14
8.06
9.34
9.98
10.10
9.91
9.62
9.31
9.01
8.71
8.41
8.11
7.80
7.47
7.04
6.46
5.75
4.92
4.02
3.07
2.03
0.86
-0.45
-1.89
-3.37
-4.83
-6.29
-7.80
-9.47
-11.30
-13.14
-14.70
-15.61
-15.59
-14.49
-12.44
-9.71
-6.66
-3.62
-0.77
1.79
4.05
5.95
7.43
8.41
8.90
8.98
8.86
8.72
8.66
8.63
8.46
7.97
7.08
5.93
4.80
3.99
3.71
3.93
4.40
4.78
4.77
4.23
3.25
2.05
0.88
-0.09
-0.81
-1.35
-1.86
-2.47
-3.27
-4.24
-5.26
-6.11
-6.52
-6.20
-4.99
-2.86
-0.01
3.25
6.53
9.52
12.02
14.01
15.52
16.62
17.29
17.45
17.02
16.01
14.60
13.07
11.69
10.59
9.72
8.87
7.82
6.51
5.04
3.66
2.61
1.96
1.58
1.19
0.52
-0.58
-2.08
-3.80
-5.50
-7.01
-8.24
-9.21
-9.99
-10.71
-11.48
-12.42
-13.63
-15.15
-16.90
-18.64
-20.02
-20.65
-20.19
-18.58
-15.96
-12.74
-9.34
-6.11
-3.25
-0.76
1.42
3.31
4.85
5.93
6.48
6.52
6.16
5.62
5.07
4.56
4.03
3.38
2.49
1.37
0.10
-1.16
-2.30
-3.28
-4.19
-5.17
-6.38
-7.89
-9.67
-11.61
-13.56
-15.43
-17.16
-18.79
-20.41
-22.09
-23.83
-25.52
-26.97
-27.99
-28.43
-28.21
-27.27
-25.57
-23.11
-20.08
-16.90
-14.28
-12.99
-13.58
-16.05
-19.80
-23.82
-27.18
-29.35
-30.37
-30.65
-30.57
-30.30
-29.83
-29.15
-28.47
-28.20
-28.60
-29.44
-29.84
-28.49
-24.24
-16.61
-5.99
6.59
20.03
33.70
47.60
62.09
77.34
92.78
107.04
118.36
125.21
126.98
124.17
118.14
110.58
102.91
95.91
89.67
83.80
77.69
70.79
62.75
53.52
43.34
32.68
22.08
12.03
2.85
-5.34
-12.56
-18.88
-24.35
-28.97
-32.66
-35.33
-36.86
-37.16
-36.23
-34.25
-31.54
-28.48
-25.39
-22.44
-19.60
-16.74
-13.78
-10.87
-8.27
-6.29
-5.07
-4.42
-3.93
-3.16
-1.85
-0.10
1.73
3.23
4.20
4.76
5.27
6.05
7.23
8.65
9.95
10.84
11.26
11.37
11.41
11.49
11.45
10.94
9.66
7.57
5.00
2.47
0.46
-0.87
-1.73
-2.61
-4.00
-6.20
-9.17
-12.66
-16.24
-19.52
-22.20
-24.09
-25.10
-25.20
-24.40
-22.81
-20.59
-18.06
-15.55
-13.39
-11.77
-10.73
-10.12
-9.70
-9.29
-8.77
-8.19
-7.65
-7.24
-7.06
-7.13
-7.42
-7.85
-8.29
-8.53
-8.35
-7.60
-6.26
-4.48
-2.57
-0.87
0.38
1.08
1.35
1.42
1.52
1.77
2.11
2.28
1.96
0.93
-0.89
-3.38
-6.25
-9.19
-11.86
-14.01
-15.44
-16.05
-15.77
-14.64
-12.76
-10.35
-7.68
-5.08
-2.79
-0.99
0.31
1.17
1.69
1.98
2.06
1.95
1.64
1.21
0.74
0.33
0.04
-0.15
-0.29
-0.47
-0.75
-1.18
-1.73
-2.37
-3.02
-3.59
-4.02
-4.34
-4.63
-5.04
-5.72
-6.70
-7.99
-9.48
-11.06
-12.55
-13.70
-14.28
-14.04
-12.87
-10.86
-8.31
-5.61
-3.16
-1.16
0.37
1.58
2.62
3.57
4.32
4.71
4.58
3.90
2.83
1.62
0.51
-0.34
-0.97
-1.48
-2.01
-2.56
-3.06
-3.38
-3.48
-3.44
-3.46
-3.77
-4.50
-5.67
-7.16
-8.82
-10.50
-12.06
-13.33
-14.12
-14.24
-13.56
-12.03
-9.77
-6.97
-3.85
-0.67
2.36
5.03
7.20
8.75
9.68
10.09
10.15
10.04
9.89
9.76
9.61
9.40
9.07
8.62
8.09
7.55
7.06
6.69
6.46
6.36
6.32
6.24
6.04
5.68
5.15
4.50
3.76
2.97
2.08
1.06
-0.15
-1.56
-3.18
-4.94
-6.78
-8.62
-10.29
-11.59
-12.22
-11.96
-10.69
-8.51
-5.71
-2.66
0.28
2.92
5.18
7.11
8.77
10.15
11.21
11.87
12.10
11.95
11.50
10.89
10.24
9.65
9.22
8.95
8.82
8.75
8.65
8.43
8.03
7.44
6.68
5.77
4.76
3.68
2.59
1.55
0.60
-0.25
-1.08
-1.95
-2.97
-4.17
-5.58
-7.20
-9.03
-11.02
-13.05
-14.92
-16.32
-16.94
-16.51
-14.93
-12.30
-8.91
-5.16
-1.47
1.83
4.55
6.72
8.44
9.88
11.17
12.38
13.48
14.40
15.03
15.25
15.01
14.35
13.43
12.45
11.65
11.11
10.77
10.45
9.94
9.13
8.01
6.62
5.00
3.08
0.78
-1.98
-5.13
-8.50
-11.78
-14.72
-17.14
-19.00
-20.34
-21.27
-21.90
-22.31
-22.60
-22.82
-23.06
-23.46
-24.14
-25.19
-26.59
-28.22
-29.83
-31.13
-31.80
-31.67
-30.75
-29.27
-27.52
-25.76
-24.14
-22.71
-21.49
-20.47
-19.72
-19.40
-19.61
-20.35
-21.44
-22.68
-23.85
-24.82
-25.13
-24.42
-22.52
-19.58
-16.03
-12.34
-8.93
-5.91
-3.09
0.57
6.05
13.69
22.94
32.67
41.55
48.52
53.00
54.96
55.84
57.26
60.19
64.73
70.25
75.90
80.82
84.33
85.96
86.97
88.69
91.81
96.13
100.93
105.67
110.19
114.80
112.99
101.18
79.90
53.69
27.62
4.69
-13.93
-27.89
-36.59
-41.61
-43.25
-41.91
-38.48
-34.16
-29.96
-26.42
-23.90
-22.67
-23.18
-24.63
-26.15
-27.07
-27.22
-26.76
-25.94
-25.06
-24.45
-24.49
-24.62
-24.29
-23.18
-21.45
-19.56
-17.99
-17.12
-17.11
-17.99
-19.16
-20.04
-20.31
-20.01
-19.44
-18.92
-18.65
-18.71
-19.06
-19.49
-19.77
-19.78
-19.42
-18.64
-17.39
-15.67
-13.55
-11.22
-8.87
-6.62
-4.55
-2.61
-0.77
0.98
2.59
3.98
5.07
5.81
6.24
6.43
6.46
6.40
6.29
6.12
5.86
5.47
4.93
4.33
3.76
3.35
3.14
3.07
2.98
2.72
2.19
1.45
0.61
-0.17
-0.85
-1.45
-2.06
-2.73
-3.45
-4.18
-4.89
-5.61
-6.36
-7.15
-7.87
-8.32
-8.31
-7.71
-6.53
-4.89
-3.02
-1.13
0.58
2.00
3.06
3.75
4.10
4.18
4.04
3.75
3.41
3.07
2.78
2.51
2.23
1.88
1.42
0.86
0.25
-0.33
-0.81
-1.18
-1.42
-1.58
-1.71
-1.85
-2.06
-2.37
-2.80
-3.33
-3.93
-4.55
-5.17
-5.79
-6.45
-7.19
-8.09
-9.19
-10.46
-11.76
-12.85
-13.46
-13.40
-12.63
-11.27
-9.54
-7.67
-5.84
-4.18
-2.73
-1.51
-0.52
0.23
0.79
1.17
1.40
1.49
1.46
1.31
1.11
0.94
0.84
0.85
0.88
0.84
0.62
0.18
-0.43
-1.14
-1.83
-2.44
-2.94
-3.37
-3.77
-4.23
-4.79
-5.50
-6.35
-7.26
-8.14
-8.90
-9.54
-10.13
-10.80
-11.65
-12.69
-13.81
-14.80
-15.41
-15.44
-14.76
-13.36
-11.36
-8.97
-6.47
-4.13
-2.15
-0.62
0.52
1.39
2.09
2.64
3.00
3.13
3.02
2.75
2.45
2.22
2.05
1.88
1.64
1.33
1.06
0.94
1.03
1.22
1.33
1.19
0.72
-0.00
-0.84
-1.69
-2.52
-3.39
-4.35
-5.40
-6.51
-7.67
-8.92
-10.33
-11.89
-13.44
-14.73
-15.44
-15.39
-14.51
-12.93
-10.81
-8.34
-5.65
-2.87
-0.12
2.46
4.76
6.69
8.21
9.28
9.93
10.17
10.06
9.73
9.30
8.87
8.50
8.15
7.80
7.45
7.14
6.94
6.85
6.80
6.66
6.30
5.66
4.76
3.64
2.41
1.13
-0.14
-1.33
-2.40
-3.37
-4.32
-5.42
-6.84
-8.68
-10.88
-13.15
-15.08
-16.23
-16.26
-15.05
-12.72
-9.58
-6.03
-2.47
0.83
3.74
6.26
8.41
10.20
11.61
12.60
13.15
13.31
13.22
13.06
12.95
12.95
13.00
12.97
12.76
12.33
11.75
11.16
10.70
10.46
10.37
10.27
9.93
9.18
7.96
6.39
4.66
2.98
1.49
0.20
-0.96
-2.13
-3.43
-4.97
-6.78
-8.81
-10.88
-12.67
-13.77
-13.82
-12.62
-10.22
-6.94
-3.25
0.39
3.66
6.42
8.67
10.50
11.97
13.05
13.72
13.93
13.74
13.26
12.70
12.21
11.90
11.74
11.61
11.37
10.94
10.37
9.79
9.34
9.06
8.82
8.42
7.66
6.51
5.10
3.64
2.34
1.23
0.24
-0.82
-2.10
-3.63
-5.33
-7.05
-8.62
-9.88
-10.66
-10.78
-10.07
-8.47
-6.04
-3.06
0.12
3.12
5.65
7.56
8.85
9.56
9.81
9.70
9.38
8.99
8.63
8.38
8.22
8.05
7.74
7.16
6.29
5.23
4.15
3.26
2.74
2.58
2.68
2.75
2.56
1.94
0.91
-0.38
-1.70
-2.92
-4.02
-5.08
-6.22
-7.52
-8.97
-10.47
-11.87
-12.92
-13.40
-13.08
-11.83
-9.67
-6.82
-3.61
-0.47
2.30
4.50
6.09
7.12
7.69
7.84
7.63
7.07
6.24
5.25
4.22
3.29
2.53
1.94
1.48
1.04
0.56
-0.02
-0.65
-1.27
-1.78
-2.12
-2.28
-2.35
-2.50
-2.92
-3.78
-5.13
-6.87
-8.78
-10.52
-11.76
-12.21
-11.69
-10.19
-7.87
-5.04
-2.09
0.58
2.73
4.24
5.19
5.72
5.98
6.03
5.89
5.53
4.97
4.28
3.59
3.02
2.60
2.28
1.97
1.54
0.95
0.25
-0.44
-1.03
-1.47
-1.84
-2.25
-2.78
-3.49
-4.38
-5.44
-6.66
-8.00
-9.32
-10.43
-11.04
-10.90
-9.94
-8.22
-5.98
-3.49
-1.02
1.21
3.06
4.48
5.44
5.98
6.15
6.03
5.68
5.15
4.52
3.83
3.14
2.49
1.87
1.29
0.71
0.11
-0.49
-1.06
-1.58
-2.03
-2.42
-2.80
-3.25
-3.84
-4.59
-5.49
-6.48
-7.53
-8.65
-9.80
-10.95
-11.96
-12.58
-12.56
-11.70
-9.96
-7.48
-4.53
-1.47
1.38
3.79
5.65
6.95
7.76
8.20
8.38
8.40
8.29
8.08
7.77
7.35
6.82
6.17
5.45
4.74
4.13
3.68
3.38
3.11
2.70
2.03
1.03
-0.17
-1.44
-2.62
-3.68
-4.65
-5.61
-6.56
-7.45
-8.20
-8.73
-9.07
-9.24
-9.32
-9.37
-9.45
-9.63
-9.96
-10.49
-11.20
-12.04
-12.85
-13.49
-13.82
-13.71
-13.03
-11.70
-9.71
-7.16
-4.31
-1.47
1.07
3.15
4.77
6.06
7.14
8.09
8.90
9.47
9.72
9.63
9.29
8.87
8.50
8.25
8.09
7.93
7.72
7.47
7.26
7.14
7.10
7.05
6.82
6.30
5.46
4.39
3.27
2.27
1.51
0.95
0.46
-0.14
-0.98
-2.07
-3.31
-4.53
-5.63
-6.59
-7.53
-8.58
-9.87
-11.40
-13.09
-14.72
-16.06
-16.85
-16.88
-16.03
-14.32
-11.91
-9.08
-6.13
-3.28
-0.71
1.53
3.43
4.99
6.25
7.24
8.02
8.57
8.90
9.02
8.97
8.82
8.66
8.56
8.51
8.47
8.41
8.34
8.33
8.43
8.63
8.76
8.62
8.07
7.12
5.97
4.84
3.87
3.05
2.18
1.11
-0.22
-1.69
-3.10
-4.31
-5.34
-6.36
-7.56
-9.08
-10.89
-12.81
-14.61
-16.05
-16.91
-16.97
-16.08
-14.18
-11.35
-7.87
-4.11
-0.48
2.71
5.30
7.29
8.74
9.79
10.53
11.07
11.44
11.66
11.69
11.50
11.13
10.67
10.27
10.09
10.15
10.39
10.61
10.63
10.33
9.76
9.02
8.24
7.52
6.82
6.09
5.23
4.24
3.17
2.11
1.14
0.27
-0.57
-1.51
-2.66
-4.08
-5.74
-7.57
-9.46
-11.33
-13.05
-14.42
-15.17
-15.02
-13.79
-11.52
-8.47
-5.08
-1.79
1.10
3.45
5.29
6.72
7.85
8.75
9.48
10.05
10.44
10.63
10.59
10.36
10.03
9.67
9.35
9.07
8.83
8.61
8.45
8.38
8.40
8.43
8.37
8.10
7.58
6.83
5.82
4.55
3.02
1.28
-0.46
-1.95
-3.00
-3.59
-3.95
-4.41
-5.23
-6.49
-8.05
-9.70
-11.28
-12.72
-13.94
-14.77
-14.94
-14.11
-12.13
-9.13
-5.52
-1.88
1.33
3.87
5.77
7.21
8.36
9.29
9.96
10.32
10.38
10.23
10.02
9.82
9.64
9.40
9.05
8.61
8.17
7.85
7.72
7.73
7.73
7.55
7.05
6.23
5.23
4.22
3.35
2.67
2.13
1.57
0.85
-0.12
-1.34
-2.74
-4.21
-5.66
-7.01
-8.17
-9.10
-9.83
-10.44
-11.07
-11.84
-12.76
-13.66
-14.20
-14.03
-12.88
-10.72
-7.70
-4.22
-0.68
2.55
5.21
7.20
8.51
9.23
9.52
9.56
9.47
9.28
8.96
8.45
7.74
6.92
6.16
5.61
5.34
5.26
5.23
5.15
5.00
4.82
4.66
4.52
4.30
3.90
3.24
2.37
1.36
0.29
-0.79
-1.87
-2.96
-4.07
-5.23
-6.48
-7.84
-9.34
-10.95
-12.59
-14.14
-15.50
-16.58
-17.23
-17.26
-16.48
-14.76
-12.18
-8.99
-5.60
-2.39
0.40
2.69
4.56
6.06
7.18
7.86
8.05
7.78
7.21
6.55
5.99
5.58
5.25
4.89
4.43
3.87
3.35
2.99
2.81
2.75
2.67
2.40
1.87
1.11
0.20
-0.76
-1.70
-2.61
-3.51
-4.44
-5.45
-6.62
-8.02
-9.66
-11.44
-13.12
-14.31
-14.63
-13.82
-11.86
-8.97
-5.56
-2.10
1.01
3.55
5.47
6.83
7.77
8.38
8.72
8.79
8.58
8.13
7.52
6.91
6.41
6.07
5.86
5.66
5.36
4.94
4.44
3.98
3.66
3.48
3.34
3.10
2.65
1.94
0.99
-0.17
-1.48
-2.91
-4.37
-5.77
-7.03
-8.17
-9.28
-10.51
-11.92
-13.41
-14.72
-15.50
-15.44
-14.43
-12.57
-10.13
-7.42
-4.72
-2.20
0.06
2.05
3.76
5.18
6.30
7.08
7.54
7.70
7.59
7.22
6.59
5.74
4.74
3.75
2.95
2.41
2.13
1.92
1.62
1.09
0.33
-0.54
-1.39
-2.16
-2.89
-3.69
-4.62
-5.64
-6.71
-7.77
-8.85
-10.09
-11.57
-13.27
-14.93
-16.16
-16.52
-15.75
-13.79
-10.84
-7.29
-3.54
0.06
3.22
5.78
7.64
8.81
9.40
9.58
9.54
9.40
9.20
8.92
8.51
7.94
7.23
6.47
5.74
5.13
4.67
4.34
4.04
3.65
3.04
2.12
0.91
-0.53
-2.05
-3.53
-4.87
-6.05
-7.11
-8.15
-9.31
-10.74
-12.54
-14.71
-17.05
-19.20
-20.66
-20.97
-19.84
-17.28
-13.63
-9.39
-5.12
-1.23
2.07
4.78
7.03
8.96
10.60
11.89
12.72
13.00
12.76
12.10
11.17
10.16
9.23
8.44
7.86
7.46
7.20
7.01
6.79
6.42
5.81
4.89
3.66
2.19
0.59
-1.03
-2.59
-4.06
-5.49
-6.97
-8.61
-10.49
-12.56
-14.67
-16.50
-17.67
-17.82
-16.74
-14.42
-11.11
-7.22
-3.21
0.55
3.81
6.52
8.72
10.47
11.81
12.74
13.22
13.24
12.86
12.23
11.53
10.90
10.43
10.05
9.67
9.13
8.36
7.37
6.26
5.18
4.21
3.36
2.52
1.56
0.36
-1.14
-2.91
-4.87
-6.98
-9.18
-11.41
-13.47
-15.07
-15.80
-15.30
-13.42
-10.26
-6.20
-1.77
2.49
6.22
9.27
11.65
13.52
14.97
16.01
16.55
16.49
15.85
14.77
13.55
12.48
11.72
11.28
10.97
10.60
10.01
9.21
8.25
7.27
6.32
5.41
4.42
3.22
1.72
-0.11
-2.30
-4.68
-6.95
-8.88
-10.36
-11.52
-12.62
-13.94
-15.68
-17.98
-20.77
-23.78
-26.76
-29.50
-31.89
-33.88
-35.25
-35.79
-35.41
-33.91
-30.99
-26.57
-20.77
-13.97
-6.71
0.56
7.06
11.22
11.99
9.37
4.16
-1.94
-6.94
-9.37
-8.17
-3.84
0.84
3.89
5.11
5.28
5.95
8.70
14.56
24.73
39.16
54.99
70.33
84.79
97.76
108.74
117.18
122.70
126.07
127.78
125.45
118.47
108.59
97.35
86.50
77.34
60.48
31.65
5.95
-13.31
-30.86
-47.63
-63.74
-78.12
-89.50
-96.31
-97.70
-93.02
-85.26
-77.96
-69.26
-59.74
-49.45
-38.43
-25.90
-12.06
3.91
19.95
34.38
46.22
53.76
56.24
47.89
38.53
29.55
23.83
21.60
22.38
25.37
29.05
32.70
36.12
40.14
39.02
30.21
13.68
-7.55
-30.02
-51.65
-70.85
-86.32
-96.31
-101.02
-99.73
-94.24
-85.50
-75.23
-65.92
-59.64
-57.58
-59.32
-64.28
-70.02
-74.33
-75.92
-74.00
-69.31
-63.23
-57.12
-51.69
-47.42
-43.64
-39.66
-34.95
-29.62
-24.02
-18.19
-11.86
-4.57
3.66
12.66
21.73
30.00
36.66
41.28
44.09
45.75
46.97
48.15
49.39
50.45
51.06
51.00
50.14
48.57
46.41
43.75
40.61
37.04
33.16
29.33
25.99
23.53
22.19
21.96
22.58
23.67
24.82
25.72
26.20
26.23
25.82
25.02
23.86
22.39
20.66
18.74
16.74
14.74
12.81
10.96
9.18
7.43
5.70
4.01
2.45
1.10
0.00
-0.85
-1.52
-2.11
-2.72
-3.42
-4.25
-5.24
-6.36
-7.57
-8.76
-9.85
-10.78
-11.55
-12.21
-12.86
-13.55
-14.25
-14.85
-15.14
-14.92
-14.02
-12.36
-10.00
-7.12
-3.99
-0.90
1.90
4.22
5.98
7.15
7.78
7.95
7.75
7.27
6.62
5.90
5.16
4.42
3.63
2.74
1.72
0.60
-0.54
-1.60
-2.51
-3.23
-3.82
-4.37
-4.98
-5.72
-6.59
-7.55
-8.56
-9.59
-10.69
-11.90
-13.27
-14.73
-16.09
-17.07
-17.36
-16.70
-15.05
-12.52
-9.39
-6.02
-2.78
0.02
2.19
3.64
4.44
4.72
4.73
4.65
4.59
4.57
4.52
4.38
4.13
3.81
3.49
3.24
3.04
2.83
2.55
2.16
1.69
1.19
0.75
0.41
0.19
-0.01
-0.34
-0.95
-2.01
-3.57
-5.53
-7.66
-9.60
-10.99
-11.55
-11.14
-9.79
-7.68
-5.06
-2.25
0.47
2.86
4.79
6.23
7.18
7.74
7.94
7.86
7.52
6.96
6.25
5.48
4.73
4.02
3.36
2.72
2.10
1.51
0.96
0.49
0.06
-0.36
-0.86
-1.52
-2.38
-3.46
-4.69
-5.99
-7.32
-8.64
-10.00
-11.39
-12.75
-13.89
-14.51
-14.27
-12.97
-10.62
-7.51
-4.13
-1.00
1.49
3.21
4.26
4.86
5.26
5.57
5.76
5.68
5.19
4.22
2.82
1.18
-0.45
-1.79
-2.65
-2.91
-2.58
-1.72
-0.45
1.05
2.53
3.76
4.55
4.85
4.81
4.70
4.77
5.11
5.52
5.62
5.05
3.65
1.55
-0.88
-3.27
-5.30
-6.79
-7.59
-7.52
-6.39
-4.09
-0.75
3.22
7.19
10.56
12.88
14.03
14.17
13.63
12.75
11.76
10.75
9.71
8.60
7.44
6.32
5.37
4.66
4.20
3.89
3.64
3.34
2.95
2.45
1.82
1.04
0.08
-1.02
-2.18
-3.31
-4.30
-5.16
-5.97
-6.81
-7.78
-8.90
-10.12
-11.36
-12.55
-13.67
-14.76
-15.95
-17.29
-18.77
-20.18
-21.15
-21.23
-19.99
-17.19
-12.84
-7.21
-0.81
5.64
11.37
15.70
18.14
18.63
17.52
15.56
13.66
12.53
12.42
12.96
13.31
12.51
9.93
5.61
0.27
-4.88
-8.67
-10.38
-9.99
-8.06
-5.46
-3.05
-1.38
-0.71
-1.00
-2.06
-3.53
-4.98
-5.89
-5.80
-4.46
-2.04
0.88
3.48
4.99
4.96
3.43
0.90
-1.78
-3.77
-4.56
-4.05
-2.48
-0.24
2.27
4.69
6.86
8.78
10.56
12.16
13.47
14.46
15.24
15.93
16.55
17.05
17.25
16.91
15.59
12.91
8.86
3.85
-1.55
-6.80
-11.64
-16.12
-19.32
-20.53
-19.88
-18.30
-16.48
-14.50
-12.08
-9.09
-5.73
-2.46
-0.00
1.03
0.01
-2.84
-6.97
-11.40
-14.88
-16.08
-14.04
-8.77
-1.30
6.70
13.41
17.38
18.25
16.16
11.95
6.93
2.21
-1.55
-3.30
-2.87
-1.41
-0.41
-0.95
-3.16
-6.47
-10.18
-13.72
-16.65
-18.66
-20.30
-20.77
-19.46
-16.37
-12.09
-7.65
-4.05
-1.84
-1.16
-1.72
-2.86
-3.75
-4.15
-4.22
-4.31
-4.70
-5.50
-6.67
-8.00
-9.04
-9.44
-9.01
-7.67
-5.50
-2.71
0.41
3.54
6.38
8.87
10.97
12.65
13.93
14.86
15.41
15.54
15.23
14.46
13.39
12.18
10.98
9.90
8.98
8.19
7.47
6.79
6.15
5.56
4.97
4.29
3.40
2.25
0.81
-0.82
-2.52
-4.17
-5.67
-7.05
-8.40
-9.86
-11.53
-13.35
-15.06
-16.26
-16.49
-15.42
-13.05
-9.66
-5.81
-2.04
1.25
3.94
6.09
7.87
9.35
10.54
11.36
11.79
11.85
11.61
11.16
10.53
9.69
8.64
7.46
6.26
5.24
4.49
4.07
3.88
3.74
3.45
2.85
1.87
0.56
-0.94
-2.45
-3.84
-5.04
-6.12
-7.19
-8.35
-9.63
-10.96
-12.16
-13.00
-13.21
-12.57
-11.00
-8.61
-5.68
-2.62
0.18
2.44
4.07
5.13
5.69
5.84
5.61
5.04
4.24
3.42
2.80
2.55
2.76
3.35
4.17
4.99
5.58
5.77
5.45
4.66
3.58
2.44
1.48
0.85
0.58
0.58
0.68
0.74
0.58
0.04
-0.98
-2.54
-4.48
-6.48
-8.04
-8.61
-7.84
-5.64
-2.29
1.70
5.71
9.22
11.89
13.62
14.46
14.53
14.02
13.10
11.97
10.81
9.76
8.90
8.23
7.69
7.18
6.66
6.11
5.62
5.23
5.00
4.83
4.59
4.09
3.22
1.98
0.49
-1.07
-2.57
-3.92
-5.14
-6.29
-7.43
-8.60
-9.80
-10.99
-12.01
-12.68
-12.75
-12.07
-10.58
-8.44
-5.88
-3.19
-0.56
1.89
4.10
5.97
7.37
8.20
8.41
8.06
7.37
6.56
5.87
5.37
5.05
4.78
4.44
3.95
3.29
2.55
1.80
1.10
0.42
-0.31
-1.15
-2.11
-3.10
-4.01
-4.76
-5.31
-5.69
-5.95
-6.10
-6.18
-6.26
-6.44
-6.76
-7.19
-7.56
-7.56
-6.95
-5.62
-3.66
-1.40
0.84
2.79
4.34
5.55
6.53
7.34
7.98
8.38
8.47
8.22
7.70
7.02
6.27
5.51
4.71
3.82
2.79
1.68
0.60
-0.33
-1.06
-1.61
-2.08
-2.66
-3.46
-4.54
-5.86
-7.30
-8.72
-10.04
-11.28
-12.55
-13.97
-15.56
-17.17
-18.50
-19.12
-18.75
-17.28
-14.85
-11.79
-8.49
-5.26
-2.27
0.45
2.93
5.19
7.19
8.77
9.79
10.12
9.83
9.10
8.27
7.70
7.76
8.74
10.81
13.94
17.87
22.12
25.97
28.70
29.78
29.03
26.68
23.28
19.42
15.60
12.10
8.97
6.16
3.54
1.04
-1.41
-3.81
-6.13
-8.32
-10.33
-12.21
-14.03
-15.92
-17.96
-20.17
-22.50
-24.86
-27.21
-29.49
-31.61
-33.37
-34.51
-34.76
-34.05
-32.61
-30.88
-29.41
-28.57
-28.43
-28.71
-28.95
-28.64
-27.36
-24.89
-21.18
-16.45
-11.08
-5.62
-0.63
3.47
6.49
8.53
9.87
10.84
11.60
12.12
12.18
11.52
10.07
8.02
5.90
4.36
3.96
4.95
7.10
9.85
12.49
14.49
15.58
15.79
15.29
14.28
12.92
11.35
9.73
8.28
7.20
6.59
6.35
6.27
6.11
5.75
5.21
4.63
4.19
3.97
3.93
3.94
3.84
3.50
2.91
2.14
1.30
0.54
-0.05
-0.46
-0.72
-0.91
-1.17
-1.57
-2.15
-2.89
-3.72
-4.56
-5.35
-6.15
-7.02
-8.07
-9.32
-10.66
-11.81
-12.40
-12.11
-10.77
-8.45
-5.42
-2.09
1.14
3.97
6.25
7.95
9.16
9.97
10.49
10.76
10.82
10.66
10.25
9.56
8.58
7.37
6.09
4.98
4.27
4.12
4.53
5.27
6.06
6.57
6.63
6.22
5.44
4.42
3.23
1.88
0.36
-1.34
-3.15
-4.93
-6.57
-7.97
-9.10
-10.01
-10.76
-11.46
-12.20
-13.00
-13.86
-14.74
-15.56
-16.20
-16.45
-16.07
-14.81
-12.53
-9.33
-5.52
-1.56
2.10
5.18
7.61
9.51
11.04
12.27
13.20
13.75
13.86
13.57
13.00
12.29
11.61
11.06
10.68
10.46
10.34
10.25
10.12
9.95
9.77
9.66
9.60
9.54
9.34
8.91
8.20
7.26
6.22
5.19
4.22
3.27
2.27
1.20
0.11
-0.90
-1.77
-2.47
-3.05
-3.59
-4.11
-4.57
-4.83
-4.68
-4.00
-2.76
-1.08
0.86
2.83
4.61
6.02
7.03
7.66
7.94
7.83
7.30
6.43
5.37
4.26
3.22
2.53
2.38
2.78
3.44
3.92
3.90
3.26
2.09
0.65
-0.41
-0.51
0.48
2.11
3.62
4.38
4.24
3.43
2.47
2.44
4.35
8.74
15.44
23.92
33.67
44.39
55.96
64.85
68.04
64.53
56.19
46.00
35.73
25.28
13.58
-0.40
-16.81
-34.19
-50.26
-62.84
-70.57
-73.12
-71.00
-65.29
-57.47
-49.23
-41.74
-35.78
-31.77
-29.86
-29.75
-30.64
-31.09
-29.54
-24.77
-16.20
-4.42
8.85
21.29
30.78
35.95
36.47
32.76
25.66
16.49
6.80
-1.71
-7.61
-10.06
-9.27
-6.20
-2.23
1.51
4.67
7.76
11.82
17.72
25.87
35.37
44.61
51.64
54.76
53.12
47.00
37.73
26.83
16.42
7.55
0.46
-5.18
-9.84
-13.83
-17.30
-20.34
-23.15
-26.02
-29.23
-32.68
-35.83
-37.86
-38.12
-36.41
-33.18
-29.32
-25.74
-23.19
-21.79
-21.26
-20.83
-19.89
-18.08
-15.45
-12.48
-9.64
-7.47
-6.20
-5.76
-5.77
-5.79
-5.45
-4.62
-3.38
-1.88
-0.49
0.67
1.62
2.45
3.24
3.94
4.42
4.61
4.55
4.36
4.22
4.26
4.50
4.80
5.02
5.08
5.04
5.07
5.39
6.14
7.24
8.46
9.42
9.78
9.46
8.59
7.46
6.38
5.52
4.90
4.45
4.14
4.01
4.13
4.47
4.81
4.87
4.38
3.32
1.89
0.43
-0.75
-1.54
-1.98
-2.26
-2.51
-2.80
-3.10
-3.37
-3.58
-3.73
-3.83
-3.87
-3.90
-3.94
-4.04
-4.25
-4.51
-4.72
-4.77
-4.66
-4.46
-4.33
-4.37
-4.62
-4.96
-5.26
-5.35
-5.21
-4.88
-4.41
-3.83
-3.13
-2.29
-1.33
-0.34
0.55
1.23
1.62
1.72
1.58
1.28
0.91
0.58
0.35
0.27
0.27
0.29
0.24
0.07
-0.19
-0.49
-0.80
-1.10
-1.42
-1.81
-2.25
-2.69
-3.06
-3.31
-3.42
-3.44
-3.46
-3.56
-3.79
-4.16
-4.63
-5.15
-5.64
-5.98
-6.07
-5.83
-5.23
-4.32
-3.22
-2.05
-0.93
0.13
1.19
2.37
3.74
5.26
6.75
7.95
8.62
8.64
8.02
6.92
5.61
4.35
3.30
2.53
1.98
1.59
1.29
1.00
0.64
0.17
-0.38
-1.01
-1.66
-2.30
-2.95
-3.65
-4.50
-5.61
-6.95
-8.47
-10.13
-11.90
-13.70
-15.33
-16.48
-16.82
-16.14
-14.22
-11.18
-7.45
-3.63
-0.21
2.62
5.00
7.11
9.08
11.20
13.54
15.83
17.58
18.47
18.64
18.48
18.45
18.74
19.90
22.07
24.88
27.53
29.40
30.39
30.87
31.28
31.93
33.77
37.45
42.95
49.62
56.77
64.22
72.24
81.13
85.36
80.58
65.70
43.38
17.14
-10.74
-38.75
-65.10
-87.33
-102.65
-107.96
-101.65
-84.81
-61.27
-36.52
-15.88
-3.13
0.40
-4.33
-14.04
-25.01
-34.40
-40.70
-43.33
-42.09
-37.09
-28.85
-18.69
-8.01
1.63
8.67
12.04
11.54
7.93
2.69
-2.13
-4.48
-2.36
4.91
15.93
27.12
33.95
33.04
24.00
10.43
-2.43
-9.05
-6.37
4.92
20.96
36.78
48.54
54.22
54.74
51.84
47.02
40.76
32.98
23.69
13.57
3.93
-3.78
-8.65
-10.95
-11.87
-12.97
-15.56
-20.05
-25.85
-31.58
-35.72
-37.19
-35.88
-32.58
-28.59
-25.18
-23.12
-22.51
-22.78
-23.14
-22.91
-21.80
-20.01
-18.11
-16.74
-16.34
-16.98
-18.29
-19.66
-20.39
-19.84
-17.73
-14.12
-9.41
-4.19
0.88
5.21
8.44
10.51
11.56
11.88
11.76
11.38
10.81
10.04
9.09
8.06
7.09
6.33
5.79
5.39
5.02
4.58
4.08
3.58
3.20
2.97
2.88
2.89
2.90
2.82
2.61
2.22
1.66
1.01
0.38
-0.14
-0.49
-0.71
-0.91
-1.17
-1.50
-1.78
-1.84
-1.50
-0.70
0.50
1.88
3.16
4.08
4.47
4.31
3.72
2.93
2.14
1.49
0.99
0.53
-0.02
-0.74
-1.62
-2.52
-3.28
-3.80
-3.99
-3.87
-3.52
-3.04
-2.53
-2.07
-1.75
-1.63
-1.72
-1.97
-2.29
-2.57
-2.77
-2.92
-3.11
-3.48
-4.16
-5.20
-6.49
-7.87
-9.05
-9.73
-9.64
-8.68
-6.89
-4.49
-1.81
0.84
3.25
5.28
6.86
7.93
8.43
8.35
7.77
6.85
5.82
4.85
4.00
3.27
2.62
2.05
1.58
1.30
1.21
1.26
1.32
1.27
0.97
0.39
-0.41
-1.34
-2.25
-3.01
-3.52
-3.78
-3.82
-3.74
-3.64
-3.61
-3.72
-3.95
-4.25
-4.49
-4.50
-4.09
-3.13
-1.65
0.22
2.26
4.26
6.04
7.54
8.78
9.75
10.43
10.76
10.69
10.22
9.45
8.54
7.66
6.93
6.38
5.98
5.62
5.21
4.75
4.25
3.80
3.45
3.19
2.95
2.66
2.30
1.89
1.54
1.33
1.27
1.27
1.15
0.77
0.09
-0.85
-1.90
-2.93
-3.78
-4.36
-4.55
-4.26
-3.47
-2.25
-0.79
0.66
1.87
2.69
3.08
3.12
2.93
2.60
2.17
1.65
1.00
0.21
-0.70
-1.66
-2.56
-3.32
-3.91
-4.37
-4.79
-5.22
-5.63
-5.99
-6.23
-6.40
-6.60
-6.97
-7.58
-8.41
-9.29
-10.05
-10.57
-10.81
-10.86
-10.81
-10.74
-10.66
-10.58
-10.48
-10.33
-10.10
-9.71
-9.04
-7.99
-6.45
-4.41
-1.96
0.69
3.29
5.60
7.47
8.87
9.83
10.41
10.67
10.62
10.33
9.89
9.48
9.22
9.20
9.37
9.60
9.74
9.68
9.40
8.96
8.48
8.03
7.65
7.29
6.83
6.19
5.30
4.23
3.12
2.14
1.41
0.90
0.48
-0.01
-0.71
-1.66
-2.76
-3.86
-4.80
-5.41
-5.62
-5.39
-4.76
-3.82
-2.69
-1.49
-0.34
0.72
1.65
2.46
3.11
3.60
3.88
3.98
3.94
3.83
3.75
3.72
3.73
3.72
3.60
3.31
2.85
2.29
1.74
1.30
1.00
0.79
0.59
0.32
-0.03
-0.36
-0.57
-0.53
-0.22
0.28
0.71
0.81
0.34
-0.72
-2.19
-3.74
-4.92
-5.36
-4.86
-3.49
-1.52
0.67
2.77
4.59
6.09
7.35
8.50
9.57
10.45
10.98
10.99
10.50
9.66
8.74
7.99
7.68
7.79
7.94
7.66
6.67
5.14
3.57
2.59
2.66
4.12
6.63
9.17
10.46
9.78
7.33
4.11
1.46
0.53
2.13
5.81
9.78
11.82
10.52
6.02
-0.25
-6.20
-9.63
-8.35
-1.34
10.65
25.34
39.63
50.11
53.41
47.10
27.95
-1.82
-33.81
-58.49
-71.76
-75.89
-76.09
-76.76
-79.53
-83.14
-84.33
-80.37
-70.68
-56.63
-40.34
-23.65
-8.01
5.44
15.96
23.57
28.40
30.27
28.93
24.50
18.05
11.46
7.07
7.07
12.89
24.17
38.83
53.31
64.23
69.68
69.46
64.53
56.34
46.40
35.88
24.91
14.96
6.87
0.72
-4.14
-8.94
-14.71
-21.54
-28.37
-33.42
-35.01
-32.62
-27.54
-21.65
-17.42
-16.69
-19.84
-25.44
-30.75
-32.76
-29.63
-21.37
-9.66
2.80
13.43
20.67
24.14
24.25
21.27
16.00
8.99
0.78
-7.87
-15.85
-21.91
-25.22
-25.66
-23.87
-20.95
-18.34
-16.51
-15.50
-14.92
-14.22
-13.01
-11.22
-9.08
-6.96
-5.27
-4.18
-3.60
-3.19
-2.54
-1.35
0.37
2.32
4.07
5.19
5.47
4.97
3.96
2.75
1.60
0.64
-0.07
-0.50
-0.65
-0.75
-0.90
-1.12
-1.40
-1.69
-1.94
-2.10
-2.13
-2.03
-1.80
-1.42
-0.91
-0.33
0.17
0.39
0.18
-0.53
-1.66
-2.94
-4.05
-4.73
-4.90
-4.65
-4.21
-3.83
-3.73
-4.03
-4.78
-5.96
-7.40
-8.84
-9.93
-10.26
-9.55
-7.68
-4.81
-1.28
2.49
6.14
9.40
12.22
14.61
16.61
18.24
19.42
20.08
20.16
19.73
18.92
17.94
17.01
16.26
15.72
15.29
14.83
14.17
13.25
12.13
10.98
9.96
9.16
8.53
7.85
6.90
5.58
3.98
2.29
0.73
-0.64
-1.88
-3.21
-4.80
-6.71
-8.89
-11.22
-13.52
-15.59
-17.19
-18.05
-17.94
-16.68
-14.25
-10.86
-6.83
-2.56
1.57
5.26
8.31
10.61
12.16
13.02
13.38
13.43
13.37
13.31
13.24
13.08
12.72
12.13
11.34
10.48
9.68
9.02
8.49
8.03
7.56
6.98
6.25
5.35
4.29
3.13
1.90
0.61
-0.77
-2.27
-3.91
-5.64
-7.34
-8.91
-10.31
-11.65
-13.05
-14.57
-16.13
-17.46
-18.18
-17.97
-16.66
-14.29
-11.09
-7.34
-3.37
0.51
4.03
7.02
9.34
10.98
11.97
12.43
12.50
12.31
11.97
11.59
11.22
10.87
10.52
10.17
9.81
9.48
9.18
8.91
8.62
8.28
7.92
7.62
7.43
7.29
7.08
6.60
5.74
4.53
3.14
1.80
0.65
-0.32
-1.23
-2.22
-3.38
-4.74
-6.26
-7.88
-9.51
-11.00
-12.08
-12.46
-11.90
-10.33
-7.93
-5.05
-2.06
0.73
3.16
5.16
6.76
7.94
8.71
9.05
8.97
8.51
7.74
6.78
5.82
5.07
4.70
4.72
4.98
5.16
4.91
4.06
2.71
1.31
0.39
0.38
1.31
2.78
4.00
4.13
2.62
-0.43
-4.20
-7.45
-9.03
-8.43
-6.05
-3.16
-1.37
-1.85
-4.76
-9.10
-13.11
-14.99
-13.43
-7.89
1.27
12.72
24.18
32.62
35.05
29.53
16.45
-0.78
-16.61
-25.73
-25.63
-17.92
-7.50
0.12
1.36
-3.93
-12.60
-20.26
-23.77
-22.66
-18.75
-14.49
-11.42
-10.00
-9.99
-10.69
-11.48
-12.15
-12.80
-13.62
-14.52
-15.21
-14.49
-13.08
-13.04
-15.80
-20.95
-26.72
-31.28
-34.99
-37.30
-38.07
-37.53
-35.72
-32.54
-28.08
-21.86
-14.34
-6.12
3.42
13.78
23.77
32.54
39.94
46.14
50.92
53.66
53.92
51.96
48.26
43.55
38.68
34.33
31.39
29.56
28.48
27.90
27.59
26.94
25.15
21.76
16.95
11.56
6.61
2.91
0.59
-1.06
-2.96
-6.05
-10.65
-16.31
-22.02
-26.82
-30.26
-32.55
-34.45
-36.66
-39.62
-43.31
-47.31
-51.00
-53.84
-55.28
-54.86
-52.24
-47.13
-39.91
-31.74
-24.26
-18.82
-15.87
-14.56
-13.07
-9.43
-2.19
8.42
20.57
31.70
39.94
44.84
47.48
49.72
51.14
51.50
50.62
48.34
44.67
40.29
36.37
34.04
33.65
34.50
35.54
35.60
34.66
32.56
30.02
28.04
27.36
28.08
29.74
32.01
34.54
37.11
39.54
41.95
43.91
45.26
45.80
45.46
44.53
43.31
42.03
40.73
39.40
37.93
36.15
33.54
29.69
24.61
18.66
12.36
6.16
0.36
-5.02
-10.22
-16.07
-23.04
-30.70
-38.02
-44.08
-48.56
-51.67
-54.02
-56.21
-59.69
-65.06
-71.46
-77.15
-80.75
-81.79
-80.62
-78.12
-75.35
-75.01
-78.54
-85.05
-92.04
-97.27
-99.80
-99.88
-98.44
-96.47
-96.96
-101.54
-109.51
-118.80
-127.80
-135.48
-140.31
-139.73
-117.68
-69.02
-4.48
56.30
99.11
120.31
124.07
117.77
108.08
98.72
87.80
73.04
54.90
36.84
22.76
14.78
12.58
13.22
14.62
13.81
10.41
6.96
7.21
13.29
24.45
37.59
48.85
55.38
54.21
46.13
35.21
26.58
23.75
27.51
36.45
47.99
59.50
67.78
70.20
64.99
51.79
31.99
8.77
-13.55
-30.75
-39.89
-40.39
-33.16
-20.02
-3.11
15.20
32.57
46.35
53.90
53.58
45.37
31.28
14.66
-0.83
-12.43
-18.97
-20.98
-20.07
-18.06
-16.28
-15.11
-14.41
-13.92
-13.54
-13.26
-13.14
-13.23
-13.41
-13.40
-12.65
-10.72
-7.37
-2.66
3.15
9.57
15.53
19.88
20.91
18.03
11.83
3.48
-5.97
-15.29
-22.74
-26.06
-23.30
-14.00
0.37
16.33
29.81
37.80
39.82
37.39
33.08
28.95
25.98
24.28
23.39
23.10
23.48
25.04
27.82
31.43
35.18
38.51
41.15
42.37
41.19
36.12
26.90
13.88
-0.64
-13.88
-23.62
-28.81
-30.35
-29.71
-29.95
-30.81
-32.34
-34.96
-39.26
-45.53
-53.58
-63.74
-72.60
-80.46
-85.64
-85.71
-78.66
-64.19
-46.34
-27.01
-10.34
0.90
6.53
10.74
20.43
38.53
63.22
89.11
108.63
114.61
105.68
83.08
51.44
15.80
-19.93
-53.06
-79.23
-93.00
-89.77
-66.94
-27.43
20.14
62.93
88.34
83.97
51.90
6.38
-39.19
-74.76
-96.49
-106.11
-109.14
-105.27
-97.10
-85.88
-72.97
-60.55
-50.35
-43.85
-41.31
-41.75
-43.18
-44.32
-43.31
-39.67
-34.68
-29.93
-26.82
-25.92
-26.73
-27.90
-28.50
-27.12
-23.30
-17.77
-11.79
-6.66
-3.26
-1.66
-1.21
-1.34
-1.14
-0.29
0.77
1.29
0.58
-1.60
-4.84
-8.24
-10.97
-12.18
-11.50
-9.06
-5.29
-0.72
4.19
9.11
13.85
18.22
22.10
25.43
28.16
30.29
31.82
32.78
33.26
33.34
33.16
32.83
32.42
31.98
31.50
30.92
30.15
29.12
27.73
25.95
23.85
21.52
19.11
16.75
14.51
12.43
10.41
8.25
5.61
2.18
-2.25
-7.59
-13.42
-19.05
-23.68
-26.64
-27.53
-26.31
-23.21
-18.62
-12.98
-6.72
-0.25
6.04
11.77
16.66
20.55
23.41
25.34
26.55
27.23
27.53
27.53
27.28
26.80
26.17
25.51
24.92
24.44
24.04
23.62
23.10
22.46
21.71
20.84
19.82
18.53
16.90
14.90
12.69
10.47
8.44
6.63
4.84
2.79
0.19
-3.02
-6.61
-10.10
-12.89
-14.47
-14.48
-12.83
-9.68
-5.33
-0.15
5.43
11.02
16.24
20.74
24.23
26.49
27.47
27.31
26.28
24.81
23.30
22.02
21.10
20.53
20.20
20.01
19.91
19.90
20.00
20.22
20.53
20.82
20.94
20.72
20.01
18.74
16.96
14.87
12.68
10.58
8.61
6.69
4.60
2.11
-0.89
-4.38
-8.20
-12.09
-15.73
-18.80
-20.94
-21.79
-21.11
-18.80
-15.07
-10.40
-5.42
-0.71
3.42
6.94
10.03
12.85
15.42
17.58
19.10
19.89
20.03
19.76
19.30
18.77
18.17
17.44
16.56
15.61
14.69
13.89
13.23
12.64
12.01
11.21
10.14
8.78
7.19
5.56
4.07
2.88
1.96
1.11
-0.04
-1.80
-4.33
-7.54
-11.15
-14.76
-17.99
-20.52
-22.05
-22.32
-21.14
-18.49
-14.58
-9.88
-5.00
-0.51
3.24
6.25
8.74
11.00
13.23
15.40
17.26
18.52
18.95
18.54
17.48
16.09
14.65
13.35
12.24
11.27
10.35
9.45
8.51
7.51
6.43
5.21
3.86
2.38
0.85
-0.67
-2.15
-3.59
-5.03
-6.53
-8.12
-9.79
-11.48
-13.11
-14.63
-16.00
-17.18
-18.19
-19.07
-19.78
-20.20
-20.07
-19.08
-16.95
-13.60
-9.29
-4.52
0.00
3.65
6.01
7.07
7.05
6.39
5.45
4.48
3.57
2.71
1.90
1.18
0.63
0.38
0.51
1.02
1.83
2.77
3.68
4.37
4.74
4.72
4.36
3.74
2.92
1.93
0.69
-0.92
-2.92
-5.21
-7.56
-9.68
-11.39
-12.68
-13.71
-14.71
-15.84
-17.15
-18.58
-20.03
-21.36
-22.42
-22.94
-22.67
-21.34
-18.82
-15.18
-10.68
-5.72
-0.73
3.97
8.12
11.61
14.37
16.39
17.63
18.11
17.87
17.07
15.93
14.69
13.51
12.38
11.17
9.73
8.01
6.16
4.41
3.02
2.05
1.39
0.78
-0.03
-1.19
-2.64
-4.27
-5.89
-7.40
-8.79
-10.11
-11.47
-12.96
-14.65
-16.55
-18.61
-20.71
-22.66
-24.21
-25.07
-24.98
-23.76
-21.38
-17.96
-13.76
-9.14
-4.50
-0.16
3.65
6.78
9.20
10.94
12.05
12.64
12.82
12.75
12.60
12.48
12.41
12.35
12.21
11.92
11.47
10.94
10.40
9.92
9.50
9.09
8.62
7.98
7.11
5.98
4.56
2.87
0.91
-1.33
-3.85
-6.68
-9.82
-13.23
-16.82
-20.43
-23.83
-26.72
-28.73
-29.51
-28.74
-26.30
-22.31
-17.08
-11.08
-4.78
1.44
7.26
12.45
16.81
20.20
22.57
23.91
24.31
23.92
22.93
21.56
20.08
18.74
17.71
17.01
16.50
15.94
15.10
13.87
12.31
10.59
8.91
7.36
5.93
4.52
3.02
1.37
-0.40
-2.20
-3.91
-5.46
-6.86
-8.20
-9.59
-11.12
-12.81
-14.61
-16.39
-18.01
-19.28
-20.04
-20.10
-19.30
-17.53
-14.83
-11.39
-7.52
-3.56
0.18
3.51
6.31
8.53
10.16
11.18
11.63
11.62
11.32
10.91
10.51
10.14
9.74
9.24
8.58
7.78
6.91
6.07
5.33
4.71
4.20
3.76
3.31
2.77
2.03
0.99
-0.38
-2.03
-3.78
-5.45
-6.88
-8.03
-9.01
-10.02
-11.28
-12.91
-14.87
-16.90
