1659769186.00
64.000000
-0.00
-0.00
-0.00
-0.00
-0.00
-0.00
-0.00
-0.00
-0.00
-0.00
0.00
0.01
0.01
-0.00
-0.03
-0.05
-0.05
0.00
0.13
0.36
0.66
1.01
1.37
1.72
2.06
2.40
2.79
3.24
3.80
4.42
5.06
5.66
6.20
6.68
7.15
7.68
8.31
9.14
10.09
11.04
11.88
12.56
13.14
13.76
14.65
15.96
17.91
20.32
22.90
25.38
27.58
29.57
31.68
34.32
37.81
42.54
48.15
54.10
59.83
64.97
69.58
74.14
79.34
85.71
93.76
103.00
112.62
121.73
129.77
136.75
143.30
150.75
157.77
166.64
177.95
191.79
206.97
220.57
228.25
225.36
208.53
176.87
132.76
80.05
23.07
-34.94
-92.44
-149.16
-205.23
-260.37
-313.74
-363.87
-409.83
-450.91
-486.50
-515.74
-537.23
-549.22
-549.96
-538.37
-514.21
-478.67
-433.88
-382.45
-327.02
-269.84
-212.63
-156.66
-102.95
-52.38
-5.91
35.58
71.44
101.38
125.55
144.42
158.68
169.05
176.16
180.42
182.16
181.61
179.06
174.83
169.27
162.79
155.69
148.24
140.61
132.92
125.23
117.58
110.00
102.49
95.07
87.75
80.61
73.74
67.25
61.22
55.63
50.40
45.38
40.40
35.42
30.51
25.88
21.77
18.34
15.58
13.24
10.95
8.38
5.40
2.16
-0.94
-3.42
-4.96
-5.58
-5.71
-5.97
-6.96
-8.93
-11.65
-14.46
-16.67
-17.76
-17.72
-16.97
-16.22
-16.14
-17.25
-19.86
-23.98
-29.03
-33.60
-35.54
-32.54
-23.23
-8.14
10.11
27.64
40.79
47.55
48.13
44.46
39.05
33.81
29.56
26.24
23.49
21.13
19.31
18.22
17.85
17.85
17.70
16.87
15.15
12.61
9.77
7.25
5.64
5.19
5.75
6.80
7.68
7.87
7.20
5.85
4.27
2.88
2.01
1.69
1.83
2.27
2.92
3.75
4.80
6.04
7.33
8.52
9.46
10.09
10.43
10.62
10.84
11.24
11.89
12.72
13.58
14.22
14.39
13.93
12.81
11.16
9.11
6.91
4.52
1.95
-0.80
-3.70
-6.63
-9.45
-12.03
-14.27
-16.13
-17.56
-18.44
-18.65
-18.07
-16.73
-14.80
-12.59
-10.44
-8.64
-7.36
-6.58
-6.23
-6.18
-6.26
-6.35
-6.34
-6.22
-6.15
-6.35
-6.95
-7.93
-9.13
-10.26
-11.10
-11.55
-11.67
-11.64
-11.64
-11.72
-11.97
-12.41
-13.12
-14.08
-15.21
-16.33
-17.19
-17.56
-17.17
-15.91
-13.89
-11.45
-9.12
-7.41
-6.57
-6.38
-6.22
-5.24
-2.86
0.85
5.25
9.45
12.76
15.04
16.71
17.72
18.35
18.78
19.01
18.98
18.74
18.42
18.14
17.88
17.40
16.43
14.70
12.07
8.65
4.84
1.23
-1.53
-2.91
-2.65
-0.77
2.37
6.19
10.17
13.91
17.24
20.05
22.27
23.81
24.66
24.93
24.88
24.88
25.27
26.21
27.62
29.16
30.38
30.89
30.54
29.42
27.81
25.95
23.89
21.39
18.07
13.58
7.89
1.40
-5.13
-10.77
-14.77
-16.74
-16.91
-15.96
-14.82
-14.29
-14.76
-16.05
-17.46
-18.21
-17.77
-16.19
-14.17
-12.83
-13.24
-15.89
-20.46
-25.83
-30.39
-32.69
-32.03
-28.77
-24.15
-19.76
-17.17
-17.69
-21.89
-29.16
-37.46
-43.83
-45.58
-41.76
-33.75
-24.65
-17.67
-14.31
-13.65
-13.21
-10.62
-5.23
1.77
8.23
12.60
14.83
16.10
17.67
19.86
21.98
22.98
22.11
19.37
15.38
10.98
6.92
3.57
0.95
-1.15
-3.03
-4.99
-7.19
-9.53
-11.59
-12.74
-12.32
-9.91
-5.55
0.17
6.33
12.01
16.64
20.17
22.90
25.20
27.19
28.64
29.07
28.09
25.66
22.12
18.09
14.18
10.64
7.39
4.11
0.54
-3.37
-7.37
-11.07
-14.20
-16.68
-18.64
-20.24
-21.48
-22.23
-22.31
-21.69
-20.54
-19.06
-17.36
-15.28
-12.58
-9.18
-5.37
-1.75
1.02
2.57
2.97
2.66
2.12
1.69
1.44
1.30
1.19
1.14
1.16
1.26
1.36
1.34
1.10
0.62
-0.10
-1.11
-2.42
-3.97
-5.55
-6.72
-7.09
-6.38
-4.63
-2.20
0.42
2.80
4.68
6.06
7.07
7.88
8.53
8.98
9.09
8.76
7.98
6.88
5.66
4.48
3.45
2.56
1.75
0.97
0.25
-0.37
-0.83
-1.19
-1.56
-2.15
-3.10
-4.38
-5.77
-6.88
-7.33
-6.87
-5.51
-3.51
-1.27
0.86
2.63
3.95
4.86
5.40
5.62
5.57
5.30
4.88
4.40
3.89
3.35
2.78
2.16
1.50
0.85
0.25
-0.24
-0.59
-0.82
-1.01
-1.28
-1.81
-2.76
-4.11
-5.70
-7.16
-8.07
-8.09
-7.12
-5.30
-2.99
-0.61
1.49
3.14
4.33
5.17
5.78
6.22
6.42
6.30
5.81
5.00
4.02
3.09
2.35
1.84
1.44
1.03
0.47
-0.23
-1.00
-1.74
-2.40
-2.99
-3.59
-4.28
-5.04
-5.78
-6.31
-6.40
-5.93
-4.88
-3.39
-1.70
-0.05
1.42
2.69
3.84
4.95
5.99
6.80
7.19
7.03
6.35
5.33
4.20
3.17
2.30
1.58
0.93
0.31
-0.27
-0.79
-1.22
-1.61
-2.07
-2.74
-3.70
-4.95
-6.35
-7.63
-8.45
-8.53
-7.75
-6.23
-4.23
-2.10
-0.14
1.52
2.85
3.92
4.81
5.55
6.13
6.48
6.55
6.28
5.64
4.64
3.37
2.00
0.71
-0.34
-1.07
-1.49
-1.64
-1.59
-1.44
-1.28
-1.26
-1.55
-2.26
-3.40
-4.84
-6.34
-7.58
-8.28
-8.25
-7.41
-5.84
-3.75
-1.39
0.91
2.93
4.52
5.69
6.49
7.03
7.35
7.41
7.16
6.58
5.71
4.67
3.58
2.53
1.54
0.62
-0.27
-1.08
-1.74
-2.20
-2.48
-2.65
-2.84
-3.13
-3.56
-4.16
-4.88
-5.70
-6.55
-7.29
-7.76
-7.72
-7.03
-5.66
-3.71
-1.44
0.86
2.87
4.39
5.34
5.76
5.81
5.69
5.57
5.55
5.60
5.59
5.39
4.94
4.25
3.38
2.44
1.51
0.65
-0.06
-0.53
-0.69
-0.56
-0.25
-0.01
-0.08
-0.65
-1.75
-3.23
-4.82
-6.19
-7.03
-7.11
-6.34
-4.79
-2.68
-0.33
1.96
3.94
5.52
6.72
7.66
8.42
9.04
9.46
9.57
9.24
8.42
7.16
5.65
4.17
2.94
2.08
1.47
0.91
0.20
-0.68
-1.63
-2.50
-3.23
-3.95
-4.84
-6.06
-7.59
-9.20
-10.54
-11.30
-11.28
-10.49
-9.04
-7.14
-5.00
-2.82
-0.76
1.09
2.69
4.01
5.04
5.72
5.97
5.72
5.00
3.91
2.67
1.47
0.50
-0.14
-0.49
-0.67
-0.84
-1.14
-1.64
-2.28
-2.90
-3.38
-3.64
-3.80
-4.05
-4.60
-5.59
-7.00
-8.66
-10.39
-11.96
-13.16
-13.80
-13.68
-12.66
-10.73
-8.08
-5.10
-2.22
0.20
2.06
3.48
4.68
5.86
7.01
7.98
8.57
8.69
8.39
7.83
7.17
6.49
5.73
4.82
3.74
2.59
1.48
0.54
-0.19
-0.75
-1.23
-1.73
-2.37
-3.20
-4.22
-5.35
-6.45
-7.38
-8.12
-8.72
-9.23
-9.64
-9.73
-9.25
-7.99
-5.95
-3.39
-0.69
1.82
3.92
5.56
6.77
7.57
7.95
7.92
7.59
7.08
6.52
5.93
5.25
4.39
3.36
2.28
1.35
0.75
0.50
0.48
0.49
0.33
-0.12
-0.85
-1.80
-2.91
-4.15
-5.52
-7.01
-8.46
-9.65
-10.29
-10.15
-9.18
-7.51
-5.46
-3.38
-1.49
0.11
1.47
2.69
3.81
4.78
5.49
5.84
5.81
5.49
4.97
4.38
3.79
3.25
2.71
2.11
1.38
0.43
-0.75
-2.11
-3.58
-4.98
-6.17
-7.06
-7.60
-7.89
-8.09
-8.36
-8.83
-9.50
-10.18
-10.61
-10.49
-9.62
-7.97
-5.70
-3.07
-0.36
2.24
4.66
6.90
8.94
10.72
12.10
12.93
13.13
12.72
11.87
10.81
9.76
8.86
8.10
7.37
6.48
5.28
3.70
1.75
-0.44
-2.67
-4.72
-6.39
-7.56
-8.21
-8.45
-8.52
-8.73
-9.35
-10.51
-12.09
-13.75
-14.99
-15.37
-14.65
-12.88
-10.33
-7.42
-4.49
-1.75
0.73
2.94
4.87
6.49
7.71
8.50
8.89
8.97
8.85
8.63
8.34
7.96
7.45
6.79
5.99
5.10
4.21
3.36
2.56
1.76
0.90
-0.07
-1.19
-2.49
-4.00
-5.77
-7.78
-9.94
-12.02
-13.65
-14.45
-14.12
-12.63
-10.24
-7.38
-4.50
-1.90
0.35
2.32
4.12
5.72
7.04
7.99
8.57
8.93
9.24
9.58
9.88
9.93
9.57
8.75
7.60
6.36
5.25
4.39
3.74
3.17
2.49
1.50
0.07
-1.90
-4.42
-7.36
-10.44
-13.26
-15.35
-16.30
-15.86
-14.10
-11.35
-8.15
-5.06
-2.43
-0.37
1.29
2.82
4.45
6.27
8.23
10.22
12.13
13.91
15.49
16.78
17.65
17.97
17.64
16.70
15.28
13.59
11.82
10.10
8.49
6.96
5.40
3.70
1.76
-0.49
-2.99
-5.67
-8.46
-11.27
-14.00
-16.48
-18.42
-19.43
-19.18
-17.57
-14.78
-11.29
-7.64
-4.25
-1.24
1.51
4.24
7.10
10.05
12.87
15.26
16.98
17.89
18.03
17.51
16.55
15.37
14.18
13.17
12.43
11.95
11.62
11.27
10.72
9.87
8.73
7.42
6.09
4.85
3.73
2.63
1.43
0.01
-1.63
-3.40
-5.11
-6.51
-7.35
-7.47
-6.80
-5.40
-3.45
-1.21
1.08
3.22
5.12
6.78
8.28
9.70
11.05
12.19
12.88
12.84
11.90
10.16
7.93
5.62
3.55
1.85
0.48
-0.73
-1.86
-2.88
-3.72
-4.34
-4.84
-5.40
-6.25
-7.50
-9.12
-10.95
-12.79
-14.46
-15.86
-16.95
-17.70
-18.03
-17.82
-16.93
-15.36
-13.24
-10.88
-8.71
-7.10
-6.30
-6.31
-6.99
-8.09
-9.34
-10.54
-11.51
-12.09
-12.20
-11.78
-10.83
-9.44
-7.72
-5.83
-3.91
-2.07
-0.37
1.15
2.50
3.65
4.57
5.20
5.44
5.19
4.47
3.43
2.43
1.90
2.22
3.56
5.77
8.48
11.20
13.49
15.09
15.94
16.16
15.89
15.25
14.25
12.88
11.07
8.86
6.32
3.64
1.00
-1.37
-3.33
-4.83
-5.89
-6.63
-7.19
-7.70
-8.22
-8.70
-8.98
-8.90
-8.35
-7.35
-6.08
-4.76
-3.62
-2.84
-2.56
-2.77
-3.34
-3.89
-3.85
-2.61
0.27
4.81
10.66
17.14
23.57
29.43
34.43
38.47
41.48
43.44
44.31
44.12
42.95
40.94
38.15
34.62
30.33
25.31
19.71
13.81
8.01
2.80
-1.45
-4.55
-6.60
-8.00
-9.28
-10.87
-12.92
-15.20
-17.22
-18.49
-18.76
-18.18
-17.20
-16.43
-16.42
-17.49
-19.63
-22.54
-25.60
-28.05
-29.11
-28.20
-25.09
-20.00
-13.57
-6.64
-0.04
5.58
9.83
12.61
13.97
14.09
13.17
11.46
9.25
6.88
4.70
2.97
1.80
1.13
0.75
0.41
-0.07
-0.70
-1.38
-2.00
-2.56
-3.20
-4.13
-5.52
-7.33
-9.38
-11.35
-12.95
-14.06
-14.76
-15.28
-15.94
-17.03
-18.65
-20.69
-22.80
-24.34
-24.64
-23.13
-19.59
-14.30
-8.02
-1.73
3.72
7.83
10.60
12.33
13.36
13.87
13.82
13.10
11.68
9.78
7.74
5.89
4.38
3.11
1.91
0.63
-0.75
-2.15
-3.44
-4.60
-5.69
-6.82
-8.04
-9.31
-10.54
-11.63
-12.55
-13.35
-14.11
-14.95
-16.00
-17.37
-19.09
-21.01
-22.80
-23.94
-23.90
-22.35
-19.36
-15.35
-10.96
-6.82
-3.33
-0.63
1.36
2.79
3.79
4.42
4.70
4.61
4.17
3.40
2.35
1.06
-0.36
-1.79
-3.18
-4.51
-5.85
-7.28
-8.87
-10.64
-12.53
-14.45
-16.30
-17.99
-19.44
-20.60
-21.45
-22.02
-22.43
-22.88
-23.54
-24.52
-25.75
-26.97
-27.82
-27.87
-26.82
-24.52
-21.05
-16.73
-11.99
-7.28
-2.93
0.90
4.21
7.07
9.49
11.39
12.63
13.08
12.76
11.83
10.55
9.22
8.04
7.08
6.30
5.63
4.94
4.16
3.21
2.05
0.68
-0.84
-2.44
-4.02
-5.48
-6.83
-8.15
-9.65
-11.56
-14.00
-16.81
-19.53
-21.45
-21.85
-20.24
-16.61
-11.36
-5.20
1.15
7.12
12.38
16.78
20.26
22.81
24.40
25.08
24.96
24.25
23.19
22.05
21.03
20.24
19.68
19.25
18.76
18.08
17.12
15.90
14.54
13.13
11.67
10.08
8.21
5.94
3.27
0.28
-2.83
-5.93
-8.98
-12.05
-15.35
-19.06
-23.26
-27.79
-32.19
-35.76
-37.63
-37.07
-33.66
-27.49
-19.14
-9.61
0.05
8.95
16.61
22.94
28.18
32.64
36.54
39.91
42.62
44.49
45.43
45.52
44.99
44.12
43.14
42.13
41.02
39.67
37.89
35.59
32.70
29.15
24.83
19.63
13.49
6.62
-0.58
-7.61
-14.09
-19.97
-25.45
-30.76
-35.84
-40.13
-42.75
-42.78
-39.79
-34.03
-26.35
-17.82
-9.30
-1.24
6.30
13.37
19.87
25.43
29.58
31.97
32.67
32.14
31.12
30.29
30.01
30.20
30.39
30.06
28.85
26.75
24.13
21.44
19.06
17.06
15.19
13.00
10.02
5.92
0.58
-5.93
-13.31
-21.08
-28.54
-34.94
-39.57
-42.03
-42.27
-40.61
-37.52
-33.43
-28.59
-23.10
-17.08
-10.80
-4.88
-0.11
2.77
3.44
2.26
0.21
-1.38
-1.30
1.07
5.61
11.47
17.45
22.38
25.39
26.03
24.19
20.07
14.10
6.92
-0.68
-8.00
-14.54
-20.22
-25.15
-29.47
-33.15
-35.78
-36.69
-35.22
-31.00
-24.21
-15.57
-6.20
2.74
10.31
16.00
19.74
21.77
22.40
21.90
20.38
17.91
14.68
11.05
7.61
4.91
3.39
3.16
4.09
5.90
8.25
10.89
13.62
16.28
18.69
20.72
22.33
23.56
24.59
25.56
26.52
27.33
27.81
27.88
27.73
27.82
28.72
30.83
34.18
38.42
43.00
47.44
51.50
55.16
58.53
61.67
64.52
67.01
69.18
71.22
73.37
75.75
78.18
80.16
80.99
80.05
77.02
71.96
65.33
57.75
49.86
42.16
34.92
28.21
21.95
16.01
10.26
4.65
-0.80
-5.93
-10.57
-14.61
-18.09
-21.20
-24.17
-27.11
-29.90
-32.22
-33.80
-34.62
-34.97
-35.39
-36.37
-38.12
-40.52
-43.22
-45.94
-48.65
-51.63
-55.43
-60.54
-67.26
-75.34
-83.94
-91.71
-97.06
-98.63
-95.76
-88.76
-78.97
-68.28
-58.59
-51.23
-46.72
-44.81
-44.80
-45.91
-47.49
-49.17
-50.86
-52.73
-55.15
-58.36
-62.16
-65.75
-67.67
-66.35
-60.64
-50.38
-36.50
-20.58
-4.25
11.34
25.65
38.47
49.64
58.88
65.88
70.56
73.19
74.28
74.34
73.64
72.18
69.78
66.27
61.67
56.16
50.10
43.81
37.51
31.13
24.39
16.84
8.12
-1.73
-12.11
-21.82
-29.43
-33.71
-34.09
-30.83
-24.97
-17.94
-11.16
-5.60
-1.72
0.52
1.45
1.48
1.03
0.46
0.03
-0.09
0.11
0.42
0.53
0.16
-0.83
-2.34
-4.05
-5.62
-6.81
-7.62
-8.19
-8.73
-9.41
-10.35
-11.60
-13.23
-15.26
-17.63
-20.08
-22.16
-23.33
-23.18
-21.55
-18.62
-14.83
-10.70
-6.64
-2.87
0.59
3.82
6.91
9.83
12.45
14.53
15.84
16.23
15.69
14.43
12.79
11.08
9.46
7.96
6.44
4.79
3.00
1.19
-0.44
-1.81
-2.94
-3.96
-5.06
-6.38
-7.98
-9.91
-12.21
-14.87
-17.77
-20.61
-22.94
-24.25
-24.15
-22.45
-19.24
-14.81
-9.56
-3.95
1.61
6.72
11.09
14.54
17.02
18.61
19.42
19.62
19.35
18.73
17.91
16.98
15.99
14.91
13.66
12.16
10.38
8.38
6.26
4.14
2.08
0.10
-1.78
-3.62
-5.49
-7.57
-9.98
-12.80
-15.84
-18.70
-20.83
-21.72
-21.08
-18.94
-15.58
-11.42
-6.85
-2.14
2.52
7.00
11.15
14.77
17.67
19.67
20.72
20.82
20.15
18.90
17.34
15.63
13.91
12.18
10.43
8.65
6.90
5.28
3.87
2.64
1.48
0.17
-1.45
-3.51
-5.99
-8.79
-11.71
-14.49
-16.78
-18.20
-18.42
-17.22
-14.64
-10.91
-6.44
-1.67
3.02
7.34
11.10
14.12
16.31
17.62
18.06
17.74
16.81
15.44
13.81
12.09
10.45
8.96
7.66
6.48
5.35
4.22
3.07
1.89
0.63
-0.82
-2.64
-4.96
-7.80
-10.99
-14.22
-17.03
-19.02
-19.83
-19.28
-17.42
-14.50
-10.93
-7.14
-3.47
-0.06
3.12
6.15
9.02
11.59
13.64
14.93
15.40
15.09
14.19
12.89
11.34
9.61
7.78
5.94
4.21
2.65
1.28
0.07
-1.08
-2.24
-3.49
-4.93
-6.66
-8.74
-11.11
-13.53
-15.62
-16.95
-17.17
-16.15
-13.97
-10.91
-7.27
-3.34
0.69
4.69
8.53
12.03
14.95
17.01
18.07
18.14
17.46
16.34
15.13
14.00
12.98
11.92
10.72
9.34
7.84
6.34
4.92
3.56
2.16
0.53
-1.46
-3.91
-6.75
-9.80
-12.76
-15.29
-17.10
-17.97
-17.81
-16.65
-14.55
-11.61
-8.04
-4.10
-0.15
3.49
6.58
9.03
10.85
12.08
12.74
12.84
12.40
11.51
10.34
9.07
7.80
6.58
5.38
4.20
3.05
1.98
1.01
0.10
-0.89
-2.14
-3.85
-6.09
-8.79
-11.69
-14.38
-16.44
-17.48
-17.30
-15.89
-13.42
-10.17
-6.45
-2.60
1.07
4.31
6.92
8.80
9.97
10.52
10.58
10.32
9.83
9.16
8.29
7.13
5.70
4.04
2.28
0.60
-0.82
-1.89
-2.60
-3.06
-3.46
-4.10
-5.24
-7.10
-9.72
-12.85
-15.97
-18.40
-19.52
-18.96
-16.79
-13.40
-9.41
-5.39
-1.75
1.37
4.01
6.30
8.32
10.09
11.51
12.45
12.81
12.61
11.95
10.93
9.64
8.07
6.19
4.03
1.75
-0.37
-2.03
-3.09
-3.65
-4.01
-4.62
-5.81
-7.74
-10.31
-13.16
-15.83
-17.81
-18.64
-18.12
-16.26
-13.34
-9.77
-5.98
-2.26
1.21
4.36
7.16
9.55
11.44
12.77
13.48
13.61
13.22
12.45
11.44
10.29
9.06
7.73
6.28
4.70
3.07
1.58
0.42
-0.34
-0.75
-1.05
-1.58
-2.61
-4.36
-6.84
-9.84
-12.94
-15.56
-17.10
-17.13
-15.52
-12.54
-8.72
-4.63
-0.75
2.68
5.59
7.98
9.85
11.17
11.92
12.16
11.98
11.49
10.75
9.79
8.64
7.33
5.93
4.52
3.20
2.03
1.02
0.14
-0.68
-1.53
-2.50
-3.66
-5.11
-6.90
-9.06
-11.49
-13.91
-15.87
-16.85
-16.48
-14.70
-11.83
-8.41
-5.00
-1.96
0.63
2.87
4.93
6.85
8.52
9.77
10.42
10.42
9.85
8.87
7.67
6.40
5.13
3.85
2.53
1.16
-0.17
-1.31
-2.12
-2.57
-2.80
-3.07
-3.68
-4.82
-6.52
-8.62
-10.82
-12.77
-14.15
-14.68
-14.26
-12.86
-10.62
-7.77
-4.57
-1.30
1.84
4.73
7.31
9.59
11.52
13.06
14.11
14.59
14.43
13.71
12.56
11.22
9.89
8.66
7.52
6.33
4.99
3.48
1.90
0.42
-0.83
-1.84
-2.75
-3.84
-5.39
-7.51
-10.14
-12.92
-15.40
-17.11
-17.72
-17.14
-15.49
-13.05
-10.16
-7.10
-4.13
-1.41
0.96
2.94
4.58
5.91
6.96
7.72
8.16
8.27
8.09
7.68
7.07
6.23
5.13
3.76
2.23
0.75
-0.43
-1.12
-1.33
-1.29
-1.33
-1.78
-2.88
-4.67
-7.00
-9.56
-11.90
-13.54
-14.10
-13.40
-11.50
-8.71
-5.41
-2.00
1.19
3.94
6.12
7.68
8.65
9.12
9.17
8.88
8.31
7.44
6.30
4.96
3.52
2.10
0.78
-0.39
-1.34
-1.99
-2.25
-2.10
-1.66
-1.17
-0.96
-1.34
-2.51
-4.48
-7.02
-9.68
-11.85
-12.95
-12.60
-10.83
-8.01
-4.76
-1.66
0.99
3.18
5.09
6.87
8.56
10.03
11.12
11.72
11.82
11.54
10.98
10.24
9.35
8.23
6.81
5.04
2.97
0.77
-1.26
-2.83
-3.80
-4.27
-4.59
-5.20
-6.45
-8.41
-10.84
-13.26
-15.11
-15.97
-15.63
-14.18
-11.90
-9.13
-6.17
-3.22
-0.40
2.20
4.48
6.38
7.83
8.82
9.38
9.53
9.32
8.78
7.97
6.96
5.78
4.42
2.86
1.15
-0.57
-2.11
-3.25
-3.92
-4.25
-4.50
-4.98
-5.92
-7.37
-9.24
-11.28
-13.15
-14.42
-14.72
-13.81
-11.75
-8.85
-5.62
-2.56
0.02
2.10
3.82
5.37
6.84
8.19
9.26
9.88
9.96
9.51
8.64
7.55
6.41
5.32
4.29
3.28
2.24
1.27
0.49
0.03
-0.11
-0.13
-0.35
-1.06
-2.41
-4.26
-6.31
-8.19
-9.53
-10.08
-9.63
-8.07
-5.46
-2.03
1.77
5.44
8.49
10.66
11.89
12.26
11.98
11.21
10.12
8.87
7.63
6.53
5.65
4.97
4.36
3.69
2.84
1.79
0.62
-0.58
-1.68
-2.59
-3.31
-3.91
-4.55
-5.44
-6.74
-8.40
-10.20
-11.73
-12.52
-12.24
-10.82
-8.46
-5.60
-2.66
0.04
2.36
4.31
5.90
7.16
8.01
8.41
8.36
7.91
7.13
6.13
4.97
3.73
2.50
1.36
0.41
-0.34
-0.90
-1.33
-1.63
-1.80
-1.87
-1.89
-2.03
-2.50
-3.43
-4.84
-6.56
-8.18
-9.27
-9.45
-8.51
-6.51
-3.72
-0.56
2.64
5.62
8.31
10.75
13.00
15.06
16.85
18.22
18.98
18.99
18.17
16.50
14.06
10.99
7.49
3.76
-0.05
-3.73
-7.09
-9.89
-11.99
-13.31
-14.01
-14.41
-14.87
-15.68
-16.90
-18.38
-19.80
-20.84
-21.18
-20.58
-18.87
-15.98
-12.07
-7.57
-3.08
0.79
3.66
5.48
6.52
7.19
7.78
8.38
8.89
9.15
9.12
8.88
8.58
8.34
8.21
8.09
7.88
7.50
6.96
6.40
6.06
6.11
6.61
7.38
8.07
8.21
7.45
5.62
2.87
-0.43
-3.78
-6.70
-8.82
-9.98
-10.23
-9.80
-9.03
-8.19
-7.37
-6.46
-5.25
-3.65
-1.82
-0.21
0.70
0.61
-0.40
-1.86
-3.19
-3.98
-4.20
-4.18
-4.27
-4.72
-5.44
-6.18
-6.69
-6.91
-7.02
-7.29
-7.98
-9.16
-10.69
-12.30
-13.66
-14.47
-14.48
-13.57
-11.78
-9.33
-6.53
-3.72
-1.15
1.07
2.96
4.55
5.86
6.87
7.50
7.71
7.56
7.16
6.68
6.30
6.11
6.13
6.28
6.42
6.45
6.30
5.99
5.59
5.16
4.74
4.25
3.64
2.87
2.00
1.22
0.79
0.98
1.99
3.87
6.55
9.77
13.24
16.62
19.67
22.19
24.08
25.33
25.93
25.92
25.40
24.47
23.27
21.95
20.60
19.26
17.92
16.50
14.97
13.34
11.63
9.91
8.17
6.37
4.41
2.20
-0.33
-3.20
-6.34
-9.57
-12.58
-14.98
-16.33
-16.35
-14.99
-12.50
-9.35
-6.05
-2.98
-0.29
2.05
4.13
6.02
7.64
8.87
9.64
9.85
9.48
8.49
6.86
4.61
1.87
-1.09
-3.93
-6.32
-8.08
-9.24
-10.02
-10.74
-11.72
-13.22
-15.32
-17.82
-20.25
-21.91
-22.13
-20.47
-17.00
-12.27
-7.17
-2.60
0.87
3.09
4.28
4.85
5.12
5.22
5.11
4.64
3.71
2.28
0.45
-1.61
-3.70
-5.61
-7.19
-8.34
-9.00
-9.21
-9.05
-8.67
-8.29
-8.12
-8.38
-9.22
-10.60
-12.26
-13.72
-14.39
-13.74
-11.53
-7.91
-3.38
1.34
5.64
9.14
11.81
13.80
15.31
16.39
17.01
17.08
16.62
15.75
14.66
13.48
12.24
10.84
9.16
7.12
4.76
2.24
-0.27
-2.57
-4.47
-5.88
-6.81
-7.45
-8.14
-9.29
-11.11
-13.44
-15.69
-17.01
-16.64
-14.23
-10.07
-4.93
0.21
4.56
7.69
9.62
10.56
10.77
10.37
9.38
7.73
5.47
2.72
-0.31
-3.39
-6.41
-9.31
-12.04
-14.46
-16.37
-17.54
-17.88
-17.51
-16.79
-16.20
-16.19
-17.04
-18.71
-20.87
-22.92
-24.06
-23.57
-21.02
-16.46
-10.45
-3.93
2.08
6.84
10.07
11.91
12.73
12.88
12.57
11.80
10.53
8.74
6.57
4.19
1.83
-0.36
-2.28
-3.90
-5.19
-6.09
-6.64
-6.89
-7.01
-7.20
-7.67
-8.53
-9.77
-11.17
-12.35
-12.89
-12.35
-10.52
-7.49
-3.63
0.52
4.40
7.62
10.01
11.58
12.39
12.55
12.13
11.23
9.94
8.38
6.63
4.73
2.74
0.76
-1.09
-2.64
-3.83
-4.64
-5.14
-5.39
-5.45
-5.42
-5.49
-5.98
-7.13
-9.02
-11.33
-13.43
-14.58
-14.20
-12.15
-8.75
-4.64
-0.54
3.05
5.88
7.99
9.56
10.71
11.48
11.79
11.51
10.56
8.99
6.99
4.83
2.76
0.91
-0.68
-2.10
-3.41
-4.68
-5.99
-7.33
-8.72
-10.11
-11.38
-12.37
-12.96
-13.06
-12.63
-11.66
-10.06
-7.77
-4.84
-1.47
1.94
4.94
7.21
8.71
9.70
10.57
11.67
13.07
14.58
15.88
16.63
16.58
15.62
13.74
10.99
7.52
3.57
-0.49
-4.31
-7.56
-10.09
-11.92
-13.26
-14.38
-15.53
-16.88
-18.47
-20.15
-21.60
-22.36
-21.96
-20.10
-16.72
-12.11
-6.81
-1.51
3.17
6.80
9.24
10.55
11.00
10.90
10.56
10.20
9.96
9.90
10.02
10.25
10.47
10.51
10.20
9.47
8.37
7.02
5.54
3.91
2.01
-0.40
-3.43
-6.99
-10.69
-13.86
-15.80
-15.90
-13.91
-10.00
-4.71
1.21
6.99
12.04
16.06
19.04
21.16
22.57
23.28
23.15
22.01
19.78
16.65
13.10
9.76
7.26
6.04
6.22
7.63
9.85
12.30
14.41
15.74
16.07
15.42
13.99
12.14
10.21
8.54
7.35
6.69
6.46
6.34
5.99
5.18
3.81
2.01
-0.07
-2.30
-4.70
-7.35
-10.35
-13.66
-16.99
-19.78
-21.35
-21.07
-18.65
-14.23
-8.41
-2.15
3.43
7.35
8.92
7.90
4.46
-0.89
-7.45
-14.43
-21.04
-26.51
-30.19
-31.64
-30.71
-27.63
-23.06
-17.85
-12.89
-8.77
-5.69
-3.48
-1.84
-0.47
0.80
2.12
3.55
5.12
6.67
7.91
8.44
7.99
6.58
4.48
2.12
-0.11
-2.02
-3.57
-4.86
-5.98
-7.05
-8.21
-9.69
-11.72
-14.38
-17.48
-20.53
-22.77
-23.52
-22.36
-19.28
-14.73
-9.43
-4.16
0.52
4.36
7.44
10.02
12.36
14.58
16.66
18.54
20.18
21.61
22.85
23.80
24.18
23.57
21.61
18.16
13.43
7.93
2.28
-2.99
-7.61
-11.61
-15.14
-18.38
-21.29
-23.66
-25.10
-25.24
-23.87
-21.04
-17.02
-12.22
-6.97
-1.53
3.96
9.37
14.58
19.47
23.93
27.95
31.54
34.61
36.98
38.36
38.51
37.37
35.09
31.93
28.10
23.69
18.72
13.33
7.86
2.78
-1.46
-4.67
-6.98
-8.70
-10.10
-11.23
-11.87
-11.75
-10.76
-9.02
-6.87
-4.66
-2.63
-0.90
0.53
1.65
2.45
2.90
2.99
2.75
2.21
1.39
0.32
-0.93
-2.21
-3.34
-4.19
-4.76
-5.19
-5.67
-6.35
-7.28
-8.42
-9.72
-11.10
-12.44
-13.47
-13.83
-13.08
-10.92
-7.33
-2.58
2.82
8.33
13.49
18.02
21.72
24.47
26.20
26.90
26.64
25.61
24.01
22.04
19.81
17.36
14.67
11.65
8.25
4.55
0.81
-2.53
-5.04
-6.48
-6.98
-7.04
-7.28
-8.16
-9.73
-11.56
-12.93
-13.14
-11.80
-8.94
-4.99
-0.61
3.53
6.87
9.09
10.12
10.15
9.53
8.66
7.82
7.10
6.35
5.32
3.80
1.75
-0.66
-3.12
-5.27
-6.89
-7.91
-8.43
-8.64
-8.74
-8.91
-9.34
-10.19
-11.62
-13.65
-16.08
-18.52
-20.39
-21.17
-20.57
-18.68
-15.93
-12.92
-10.16
-7.93
-6.25
-4.94
-3.80
-2.75
-1.81
-1.00
-0.36
0.16
0.59
0.94
1.12
1.06
0.75
0.28
-0.15
-0.36
-0.32
-0.14
-0.08
-0.35
-1.10
-2.30
-3.82
-5.44
-6.89
-7.84
-7.96
-7.03
-5.03
-2.26
0.76
3.48
5.53
6.85
7.69
8.40
9.23
10.23
11.21
11.86
11.92
11.30
10.09
8.53
6.95
5.58
4.57
3.94
3.64
3.60
3.75
4.04
4.32
4.39
3.99
2.92
1.19
-0.91
-2.87
-4.11
-4.26
-3.24
-1.30
1.12
3.59
5.81
7.67
9.09
9.98
10.19
9.59
8.21
6.27
4.17
2.27
0.81
-0.21
-0.97
-1.66
-2.34
-2.91
-3.18
-3.00
-2.38
-1.50
-0.66
-0.13
-0.07
-0.50
-1.29
-2.19
-2.85
-2.94
-2.16
-0.41
2.20
5.31
8.47
11.25
13.35
14.65
15.22
15.21
14.78
14.05
13.05
11.79
10.23
8.46
6.59
4.83
3.36
2.31
1.64
1.21
0.86
0.54
0.33
0.42
0.90
1.71
2.55
3.07
3.04
2.50
1.75
1.20
1.15
1.63
2.45
3.39
4.31
5.28
6.39
7.62
8.76
9.41
9.18
7.87
5.50
2.25
-1.64
-5.91
-10.36
-14.78
-18.92
-22.55
-25.46
-27.56
-28.85
-29.42
-29.41
-29.02
-28.48
-27.91
-27.29
-26.40
-24.92
-22.57
-19.31
-15.39
-11.29
-7.48
-4.23
-1.57
0.67
2.64
4.37
5.73
6.50
6.53
5.87
4.71
3.32
1.94
0.71
-0.35
-1.28
-2.17
-3.06
-3.95
-4.80
-5.58
-6.28
-7.00
-7.88
-8.99
-10.19
-11.18
-11.51
-10.82
-9.00
-6.28
-3.14
-0.10
2.44
4.36
5.74
6.77
7.62
8.32
8.87
9.17
9.17
8.86
8.23
7.35
6.27
5.11
3.99
3.03
2.32
1.85
1.52
1.15
0.52
-0.50
-1.89
-3.46
-4.87
-5.71
-5.72
-4.79
-3.03
-0.75
1.73
4.13
6.35
8.43
10.52
12.72
14.98
17.09
18.72
19.56
19.45
18.45
16.83
14.88
12.85
10.85
8.86
6.83
4.72
2.56
0.38
-1.86
-4.24
-6.87
-9.72
-12.56
-14.99
-16.52
-16.83
-15.85
-13.81
-11.15
-8.34
-5.71
-3.41
-1.46
0.23
1.72
3.06
4.22
5.21
5.96
6.41
6.46
6.08
5.27
4.20
3.11
2.24
1.69
1.43
1.26
0.90
0.09
-1.30
-3.27
-5.67
-8.17
-10.34
-11.74
-12.00
-11.00
-8.89
-6.06
-3.01
-0.22
2.04
3.65
4.63
5.09
5.16
4.96
4.60
4.10
3.44
2.58
1.49
0.21
-1.20
-2.60
-3.92
-5.08
-6.07
-6.93
-7.71
-8.55
-9.57
-10.84
-12.31
-13.77
-14.88
-15.29
-14.77
-13.28
-11.05
-8.46
-5.89
-3.58
-1.62
0.08
1.62
2.99
4.07
4.62
4.41
3.42
1.82
-0.05
-1.82
-3.19
-4.03
-4.34
-4.23
-3.80
-3.20
-2.61
-2.22
-2.27
-2.95
-4.30
-6.16
-8.12
-9.61
-10.07
-9.13
-6.80
-3.48
0.19
3.54
6.14
7.91
9.07
10.00
10.99
12.06
13.01
13.47
13.14
11.94
9.98
7.60
5.17
3.08
1.57
0.78
0.67
1.05
1.56
1.78
1.29
-0.11
-2.35
-5.01
-7.45
-8.96
-9.00
-7.35
-4.23
-0.19
4.03
7.75
10.53
12.26
13.15
13.53
13.72
13.84
13.88
13.72
13.24
12.45
11.38
10.11
8.68
7.10
5.47
3.94
2.79
2.23
2.31
2.84
3.44
3.71
3.38
2.49
1.37
0.49
0.36
1.35
3.58
6.89
10.91
15.23
19.57
23.87
28.28
32.95
37.78
42.37
46.06
48.20
48.39
46.66
43.38
39.13
34.39
29.51
24.61
19.70
14.73
9.65
4.37
-1.22
-7.30
-14.01
-21.36
-29.01
-36.24
-42.08
-45.71
-46.74
-45.38
-42.32
-38.46
-34.55
-31.13
-28.51
-26.83
-26.13
-26.29
-26.95
-27.71
-28.32
-28.80
-29.31
-29.84
-29.99
-29.08
-26.60
-22.66
-18.06
-13.98
-11.31
-10.22
-10.10
-10.01
-9.20
-7.46
-5.03
-2.31
0.42
3.10
5.65
7.93
9.71
10.82
11.42
11.98
13.21
15.78
19.97
25.53
31.59
36.96
40.47
41.44
40.06
37.47
35.39
35.50
38.72
44.74
52.04
58.51
62.21
62.04
57.97
50.74
41.36
30.78
19.76
9.10
-0.29
-7.46
-11.79
-13.25
-12.52
-10.64
-8.63
-7.06
-6.06
-5.44
-4.95
-4.49
-4.15
-4.18
-4.98
-6.92
-10.14
-14.40
-19.03
-23.17
-26.22
-28.16
-29.59
-31.35
-33.97
-37.34
-40.81
-43.63
-45.40
-46.27
-46.64
-46.71
-46.22
-44.54
-41.15
-36.01
-29.72
-23.19
-17.27
-12.33
-8.28
-4.75
-1.46
1.61
4.21
6.00
6.74
6.46
5.47
4.25
3.24
2.69
2.59
2.67
2.60
2.17
1.39
0.41
-0.66
-1.96
-3.85
-6.61
-10.08
-13.47
-15.54
-15.19
-12.00
-6.49
0.11
6.42
11.48
14.97
17.12
18.31
18.80
18.62
17.73
16.29
14.71
13.50
13.10
13.67
15.14
17.44
20.68
25.07
30.69
37.14
43.37
47.84
49.01
45.94
38.71
28.42
16.76
5.50
-4.00
-10.91
-14.92
-16.11
-14.87
-11.95
-8.33
-5.09
-3.06
-2.58
-3.42
-4.99
-6.70
-8.20
-9.52
-10.85
-12.37
-14.06
-15.68
-16.99
-17.87
-18.39
-18.73
-19.15
-19.88
-21.17
-23.25
-26.25
-30.00
-33.92
-37.12
-38.64
-37.86
-34.70
-29.69
-23.69
-17.62
-12.11
-7.45
-3.66
-0.62
1.84
3.82
5.36
6.45
7.07
7.18
6.84
6.19
5.40
4.64
3.97
3.36
2.73
2.03
1.25
0.42
-0.46
-1.45
-2.60
-3.80
-4.78
-5.12
-4.41
-2.50
0.45
4.00
7.65
11.01
13.93
16.40
18.50
20.27
21.78
23.07
24.19
25.15
25.81
25.92
25.16
23.31
20.37
16.53
12.13
7.54
3.08
-1.04
-4.75
-8.11
-11.25
-14.27
-17.10
-19.46
-20.89
-20.94
-19.40
-16.42
-12.51
-8.37
-4.57
-1.45
0.97
2.84
4.37
5.63
6.59
7.17
7.28
6.88
6.01
4.75
3.17
1.37
-0.50
-2.22
-3.59
-4.53
-5.13
-5.70
-6.65
-8.26
-10.52
-13.04
-15.19
-16.35
-16.16
-14.62
-12.05
-8.91
-5.55
-2.18
1.17
4.48
7.69
10.65
13.15
15.02
16.17
16.60
16.38
15.63
14.55
13.36
12.30
11.47
10.82
10.14
9.21
7.87
6.16
4.17
2.00
-0.33
-2.83
-5.40
-7.75
-9.44
-10.01
-9.21
-7.11
-4.12
-0.80
2.34
5.03
7.23
9.09
10.77
12.30
13.54
14.27
14.32
13.65
12.46
11.00
9.50
8.04
6.61
5.15
3.68
2.31
1.14
0.22
-0.55
-1.35
-2.39
-3.71
-5.15
-6.37
-6.99
-6.69
-5.41
-3.32
-0.78
1.82
4.16
6.09
7.58
8.59
9.01
8.70
7.58
5.79
3.63
1.46
-0.43
-1.93
-3.07
-3.91
-4.53
-4.93
-5.14
-5.29
-5.62
-6.35
-7.59
-9.26
-11.05
-12.56
-13.35
-13.09
-11.64
-9.04
-5.56
-1.58
2.43
6.06
9.01
11.15
12.48
13.15
13.33
13.20
12.86
12.32
11.54
10.49
9.18
7.68
6.08
4.50
2.97
1.49
0.05
-1.34
-2.64
-3.83
-4.97
-6.20
-7.61
-9.18
-10.67
-11.66
-11.73
-10.65
-8.47
-5.52
-2.33
0.59
2.87
4.37
5.14
5.37
5.25
4.93
4.46
3.84
3.09
2.25
1.38
0.55
-0.21
-0.94
-1.67
-2.39
-3.06
-3.61
-4.05
-4.48
-5.04
-5.87
-6.92
-7.96
-8.60
-8.46
-7.32
-5.20
-2.43
0.54
3.26
5.44
7.00
8.03
8.64
8.91
8.83
8.33
7.36
5.95
4.22
2.36
0.54
-1.10
-2.53
-3.77
-4.90
-5.98
-7.10
-8.33
-9.79
-11.52
-13.54
-15.67
-17.60
-18.85
-19.01
-17.83
-15.38
-12.00
-8.24
-4.60
-1.45
1.04
2.87
4.15
5.00
5.49
5.69
5.62
5.31
4.83
4.29
3.78
3.33
2.89
2.35
1.59
0.60
-0.57
-1.79
-2.98
-4.13
-5.26
-6.37
-7.34
-7.91
-7.81
-6.85
-5.02
-2.52
0.36
3.31
6.07
8.49
10.40
11.73
12.41
12.48
12.06
11.28
10.24
8.96
7.39
5.54
3.48
1.36
-0.63
-2.33
-3.68
-4.71
-5.51
-6.24
-7.07
-8.18
-9.65
-11.35
-12.89
-13.76
-13.48
-11.87
-9.12
-5.75
-2.33
0.66
3.08
5.03
6.67
8.13
9.36
10.23
10.58
10.32
9.44
8.01
6.15
4.01
1.83
-0.13
-1.64
-2.59
-3.07
-3.32
-3.71
-4.58
-6.10
-8.18
-10.44
-12.33
-13.29
-12.95
-11.32
-8.70
-5.66
-2.79
-0.51
1.01
1.84
2.22
2.37
2.44
2.47
2.39
2.07
1.42
0.44
-0.80
-2.19
-3.64
-5.16
-6.77
-8.47
-10.20
-11.77
-13.09
-14.16
-15.20
-16.44
-17.98
-19.63
-20.97
-21.47
-20.70
-18.51
-14.96
-10.31
-4.94
0.60
5.68
9.70
12.26
13.37
13.34
12.69
11.85
10.96
9.91
8.55
6.88
5.14
3.68
2.82
2.71
3.24
4.10
4.87
5.11
4.39
2.55
-0.20
-3.23
-5.62
-6.56
-5.63
-2.99
0.69
4.56
7.92
10.39
11.94
12.74
13.00
12.85
12.38
11.63
10.61
9.31
7.69
5.73
3.46
1.08
-1.10
-2.71
-3.50
-3.45
-2.77
-1.90
-1.31
-1.32
-2.02
-3.20
-4.44
-5.28
-5.31
-4.34
-2.40
0.32
3.43
6.55
9.40
11.82
13.87
15.70
17.47
19.20
20.82
22.14
23.05
23.56
23.79
23.90
23.95
23.86
23.40
22.34
20.50
17.80
14.30
10.06
5.22
0.07
-5.00
-9.46
-12.81
-14.84
-15.73
-16.00
-16.23
-16.84
-17.79
-18.72
-19.12
-18.67
-17.38
-15.58
-13.73
-12.25
-11.31
-10.89
-10.79
-10.76
-10.57
-10.00
-8.95
-7.36
-5.34
-3.10
-1.03
0.43
0.87
0.08
-1.87
-4.52
-7.14
-8.94
-9.26
-7.85
-4.89
-0.91
3.43
7.49
10.86
13.34
14.97
15.88
16.26
16.26
15.98
15.40
14.47
13.12
11.35
9.23
6.89
4.50
2.19
0.09
-1.69
-3.10
-4.19
-5.14
-6.22
-7.70
-9.73
-12.12
-14.39
-15.85
-15.89
-14.21
-10.96
-6.64
-1.93
2.55
6.40
9.43
11.63
13.08
13.81
13.86
13.27
12.12
10.55
8.71
6.80
4.97
3.33
1.94
0.80
-0.16
-1.04
-1.93
-2.93
-4.11
-5.58
-7.34
-9.33
-11.30
-12.86
-13.60
-13.17
-11.46
-8.60
-4.95
-0.98
2.88
6.25
8.93
10.82
11.97
12.42
12.29
11.68
10.70
9.48
8.14
6.75
5.38
4.00
2.63
1.34
0.22
-0.63
-1.21
-1.66
-2.25
-3.29
-4.90
-6.96
-9.11
-10.81
-11.58
-11.08
-9.23
-6.23
-2.45
1.62
5.47
8.73
11.19
12.83
13.76
14.09
13.93
13.32
12.32
11.04
9.64
8.24
6.93
5.68
4.44
3.22
2.08
1.13
0.40
-0.20
-0.93
-2.04
-3.69
-5.82
-8.07
-9.94
-10.89
-10.53
-8.75
-5.77
-2.04
1.90
5.54
8.58
10.83
12.25
12.84
12.63
11.70
10.18
8.28
6.21
4.16
2.23
0.45
-1.17
-2.61
-3.86
-4.92
-5.86
-6.77
-7.78
-8.99
-10.48
-12.22
-14.12
-15.98
-17.50
-18.28
-18.01
-16.48
-13.78
-10.23
-6.33
-2.60
0.59
3.09
4.94
6.24
7.09
7.51
7.45
6.86
5.78
4.37
2.82
1.32
-0.01
-1.12
-2.03
-2.77
-3.39
-3.95
-4.59
-5.45
-6.66
-8.28
-10.18
-12.06
-13.50
-14.07
-13.46
-11.55
-8.49
-4.65
-0.56
3.26
6.40
8.63
9.92
10.36
10.11
9.32
8.14
6.74
5.27
3.88
2.67
1.68
0.86
0.13
-0.62
-1.46
-2.44
-3.58
-4.88
-6.39
-8.12
-10.08
-12.13
-13.97
-15.21
-15.43
-14.36
-12.06
-8.84
-5.25
-1.78
1.21
3.60
5.39
6.63
7.34
7.50
7.09
6.19
4.94
3.48
1.96
0.46
-0.98
-2.29
-3.42
-4.33
-5.07
-5.72
-6.41
-7.24
-8.24
-9.35
-10.42
-11.22
-11.47
-10.84
-9.12
-6.25
-2.49
1.69
5.71
9.07
11.57
13.25
14.32
14.98
15.29
15.15
14.41
12.98
10.98
8.64
6.29
4.16
2.31
0.70
-0.80
-2.23
-3.55
-4.75
-5.87
-7.09
-8.59
-10.43
-12.32
-13.72
-14.02
-12.77
-10.00
-6.19
-2.06
1.68
4.63
6.75
8.21
9.23
9.88
10.14
9.89
9.07
7.79
6.20
4.53
2.91
1.40
-0.04
-1.42
-2.71
-3.88
-4.94
-6.07
-7.53
-9.54
-12.11
-14.91
-17.35
-18.70
-18.41
-16.32
-12.70
-8.14
-3.38
1.00
4.64
7.43
9.45
10.80
11.59
11.80
11.42
10.46
9.02
7.27
5.41
3.60
1.87
0.22
-1.41
-3.07
-4.76
-6.51
-8.32
-10.24
-12.26
-14.29
-16.14
-17.51
-18.06
-17.49
-15.67
-12.71
-8.97
-5.00
-1.35
1.57
3.55
4.61
4.87
4.43
3.40
1.88
0.11
-1.64
-3.06
-3.99
-4.48
-4.79
-5.25
-6.12
-7.46
-9.22
-11.21
-13.30
-15.36
-17.21
-18.57
-19.05
-18.24
-15.88
-12.02
-7.03
-1.51
3.93
8.86
13.10
16.66
19.63
22.00
23.64
24.34
23.94
22.46
20.16
17.47
14.82
12.54
10.73
9.29
7.93
6.36
4.28
1.54
-1.88
-5.81
-9.89
-13.59
-16.30
-17.54
-17.01
-14.76
-11.06
-6.41
-1.38
3.52
7.85
11.35
13.95
15.78
17.08
18.01
18.66
18.94
18.76
18.06
16.97
15.70
14.48
13.47
12.65
11.99
11.47
11.04
10.58
9.83
8.48
6.39
3.88
1.69
0.72
1.55
4.04
7.36
10.26
11.74
11.44
9.71
7.33
4.96
2.83
0.62
-2.20
-6.04
-10.86
-16.21
-21.38
-25.70
-28.80
-30.66
-31.51
-31.67
-31.49
-31.17
-30.92
-30.86
-31.05
-31.39
-31.49
-30.80
-28.68
-24.76
-19.07
-12.09
-4.62
2.57
8.86
13.94
17.75
20.33
21.80
22.29
21.90
20.73
18.81
16.17
12.86
9.06
5.18
1.73
-0.78
-2.19
-2.68
-2.69
-2.71
-3.08
-4.08
-5.95
-8.82
-12.46
-16.02
-18.13
-17.31
-12.78
-5.11
3.94
12.11
17.61
19.94
19.81
18.40
16.73
15.46
14.98
15.57
17.18
19.24
20.63
20.13
17.15
12.17
6.45
1.31
-2.71
-6.04
-9.36
-12.80
-15.47
-15.84
-12.74
-6.26
2.18
10.50
16.93
20.70
22.08
21.95
21.36
21.20
21.90
23.37
25.26
26.98
28.08
28.50
28.53
28.68
29.32
30.45
31.76
32.88
33.62
34.05
34.31
34.40
33.98
32.48
29.40
24.55
18.23
11.13
4.11
-2.03
-6.77
-9.90
-11.52
-11.96
-11.65
-11.03
-10.47
-10.27
-10.68
-11.78
-13.45
-15.43
-17.40
-19.08
-20.40
-21.39
-22.03
-22.08
-21.16
-19.01
-15.78
-12.18
-9.26
-7.89
-8.43
-10.55
-13.46
-16.30
-18.42
-19.51
-19.47
-18.32
-16.17
-13.24
-9.92
-6.63
-3.60
-0.85
1.80
4.46
6.97
8.91
9.81
9.42
7.86
5.60
3.18
0.99
-0.88
-2.54
-4.10
-5.57
-6.84
-7.85
-8.71
-9.69
-11.03
-12.69
-14.25
-15.01
-14.37
-12.09
-8.43
-4.03
0.50
4.74
8.58
12.11
15.32
18.05
19.97
20.83
20.57
19.40
17.64
15.58
13.41
11.16
8.86
6.56
4.34
2.22
0.18
-1.95
-4.31
-6.93
-9.69
-12.30
-14.39
-15.63
-15.83
-15.00
-13.29
-10.99
-8.38
-5.68
-3.01
-0.39
2.18
4.60
6.67
8.14
8.77
8.55
7.68
6.51
5.36
4.33
3.30
2.01
0.26
-1.94
-4.34
-6.57
-8.33
-9.46
-10.02
-10.11
-9.79
-9.01
-7.72
-5.90
-3.68
-1.24
1.27
3.87
6.62
9.57
12.59
15.32
17.28
18.06
17.44
15.50
12.46
8.67
4.45
0.10
-4.14
-8.15
-11.89
-15.47
-19.07
-22.79
-26.64
-30.45
-34.02
-37.24
-40.05
-42.46
-44.35
-45.51
-45.65
-44.51
-41.96
-38.03
-32.84
-26.53
-19.28
-11.30
-2.91
5.45
13.31
20.21
25.89
30.21
33.17
34.86
35.43
35.07
34.03
32.57
30.88
29.04
26.99
24.61
21.84
18.67
15.28
11.94
8.92
6.41
4.52
3.32
2.85
3.21
4.39
6.27
8.57
10.88
12.83
14.22
15.02
15.36
15.41
15.25
14.89
14.24
13.25
11.89
10.21
8.33
6.39
4.54
2.84
1.31
-0.16
-1.70
-3.43
-5.35
-7.38
-9.30
-10.86
-11.87
-12.17
-11.67
-10.33
-8.20
-5.43
-2.30
0.85
3.71
6.06
7.81
8.99
9.66
9.88
9.68
9.12
8.28
7.29
6.27
5.33
4.48
3.68
2.87
1.99
0.99
-0.17
-1.51
-3.04
-4.74
-6.60
-8.52
-10.34
-11.79
-12.55
-12.35
-11.07
-8.82
-5.96
-2.94
-0.18
2.09
3.84
5.20
6.31
7.21
7.84
8.07
7.82
7.11
6.10
5.01
4.08
3.40
2.95
2.60
2.27
1.95
1.71
1.61
1.58
1.41
0.84
-0.28
-1.84
-3.44
-4.58
-4.82
-4.02
-2.30
0.02
2.61
5.22
7.67
9.77
11.32
12.09
11.91
10.78
8.87
6.54
4.16
2.04
0.33
-0.99
-2.07
-3.06
-4.07
-5.09
-6.03
-6.80
-7.36
-7.78
-8.19
-8.78
-9.61
-10.68
-11.75
-12.54
-12.69
-11.95
-10.29
-7.90
-5.16
-2.43
0.03
2.13
3.87
5.31
6.41
7.08
7.20
6.68
5.57
4.04
2.37
0.84
-0.36
-1.15
-1.58
-1.78
-1.87
-1.96
-2.12
-2.49
-3.21
-4.42
-6.11
-8.07
-9.91
-11.20
-11.70
-11.42
-10.62
-9.65
-8.77
-8.03
-7.36
-6.59
-5.63
-4.55
-3.56
-2.94
-2.91
-3.53
-4.65
-6.02
-7.37
-8.51
-9.40
-10.02
-10.40
-10.50
-10.33
-9.95
-9.63
-9.65
-10.27
-11.47
-13.01
-14.46
-15.39
-15.51
-14.65
-12.81
-10.09
-6.70
-3.00
0.58
3.67
6.07
7.82
9.06
9.94
10.45
10.47
9.90
8.77
7.31
5.82
4.50
3.38
2.33
1.25
0.11
-0.99
-1.94
-2.74
-3.54
-4.57
-5.98
-7.78
-9.73
-11.39
-12.24
-11.89
-10.19
-7.33
-3.81
-0.25
2.83
5.15
6.67
7.54
7.96
8.04
7.82
7.30
6.48
5.42
4.22
2.98
1.79
0.71
-0.23
-1.04
-1.81
-2.60
-3.49
-4.53
-5.68
-6.92
-8.25
-9.70
-11.26
-12.77
-13.91
-14.29
-13.51
-11.46
-8.32
-4.56
-0.78
2.52
5.08
6.88
8.01
8.62
8.74
8.37
7.50
6.21
4.67
3.08
1.64
0.42
-0.56
-1.40
-2.17
-2.94
-3.76
-4.64
-5.63
-6.83
-8.34
-10.20
-12.26
-14.21
-15.58
-15.97
-15.16
-13.19
-10.33
-6.99
-3.54
-0.29
2.57
4.90
6.60
7.64
8.05
7.98
7.62
7.12
6.52
5.76
4.77
3.48
1.98
0.40
-1.04
-2.16
-2.87
-3.24
-3.49
-3.94
-4.92
-6.57
-8.80
-11.22
-13.29
-14.52
-14.56
-13.35
-11.08
-8.01
-4.46
-0.70
3.00
6.36
9.15
11.23
12.55
13.23
13.38
13.10
12.44
11.38
9.95
8.27
6.50
4.86
3.48
2.42
1.63
1.00
0.35
-0.50
-1.77
-3.56
-5.88
-8.53
-11.12
-13.18
-14.22
-13.94
-12.26
-9.37
-5.70
-1.77
1.94
5.09
7.53
9.34
10.69
11.76
12.60
13.14
13.25
12.80
11.82
10.45
8.93
7.48
6.21
5.12
4.12
3.11
2.03
0.89
-0.32
-1.63
-3.13
-4.96
-7.13
-9.46
-11.54
-12.83
-12.84
-11.32
-8.41
-4.59
-0.50
3.32
6.53
9.04
10.89
12.20
13.03
13.43
13.45
13.16
12.64
11.92
11.01
9.86
8.42
6.65
4.60
2.37
0.12
-1.94
-3.62
-4.85
-5.70
-6.46
-7.46
-8.91
-10.74
-12.53
-13.67
-13.62
-12.15
-9.44
-5.98
-2.33
1.10
4.16
6.86
9.30
11.47
13.23
14.40
14.87
14.66
13.93
12.89
11.69
10.39
8.94
7.32
5.55
3.76
2.14
0.87
-0.01
-0.61
-1.16
-2.00
-3.35
-5.32
-7.76
-10.32
-12.51
-13.84
-13.95
-12.72
-10.29
-6.94
-3.09
0.90
4.74
8.25
11.31
13.83
15.65
16.62
16.68
15.90
14.54
12.98
11.56
10.41
9.44
8.39
7.05
5.36
3.50
1.73
0.26
-0.85
-1.73
-2.54
-3.43
-4.55
-5.96
-7.69
-9.67
-11.67
-13.32
-14.18
-13.91
-12.38
-9.76
-6.39
-2.73
0.84
4.04
6.68
8.69
10.05
10.74
10.79
10.29
9.37
8.22
7.03
5.97
5.11
4.39
3.68
2.84
1.84
0.73
-0.38
-1.44
-2.44
-3.49
-4.63
-5.94
-7.43
-9.16
-11.13
-13.23
-15.18
-16.52
-16.82
-15.83
-13.69
-10.84
-7.85
-5.15
-2.89
-0.97
0.81
2.53
4.10
5.28
5.89
5.87
5.37
4.71
4.21
4.11
4.43
4.97
5.37
5.29
4.57
3.30
1.72
0.06
-1.64
-3.53
-5.80
-8.48
-11.31
-13.82
-15.59
-16.39
-16.28
-15.44
-13.98
-11.86
-8.94
-5.18
-0.76
3.85
8.11
11.59
14.19
16.02
17.31
18.24
18.84
19.03
18.79
18.19
17.44
16.77
16.35
16.15
15.99
15.64
14.96
13.95
12.72
11.43
10.20
9.02
7.77
6.35
4.71
2.90
1.07
-0.59
-1.89
-2.68
-2.85
-2.28
-0.95
1.10
3.69
6.49
9.11
11.17
12.37
12.63
12.01
10.71
8.97
6.97
4.81
2.50
0.02
-2.60
-5.26
-7.76
-9.87
-11.39
-12.27
-12.63
-12.74
-12.88
-13.24
-13.85
-14.64
-15.52
-16.51
-17.69
-19.09
-20.61
-21.92
-22.57
-22.16
-20.51
-17.72
-14.14
-10.20
-6.28
-2.70
0.38
2.80
4.53
5.55
5.92
5.73
5.08
4.06
2.77
1.35
0.00
-1.10
-1.90
-2.48
-2.99
-3.58
-4.28
-5.04
-5.81
-6.61
-7.55
-8.75
-10.28
-12.05
-13.86
-15.49
-16.69
-17.27
-17.12
-16.15
-14.39
-11.91
-8.84
-5.37
-1.70
1.92
5.23
7.89
9.71
10.62
10.75
10.40
9.87
9.29
8.61
7.67
6.32
4.59
2.68
0.90
-0.47
-1.28
-1.58
-1.60
-1.66
-2.09
-3.11
-4.82
-7.18
-10.01
-13.05
-15.90
-18.11
-19.26
-19.05
-17.44
-14.62
-10.96
-6.85
-2.63
1.49
5.34
8.72
11.39
13.15
13.96
14.04
13.74
13.45
13.39
13.51
13.58
13.35
12.67
11.58
10.23
8.80
7.43
6.14
4.84
3.43
1.78
-0.19
-2.44
-4.78
-6.86
-8.24
-8.53
-7.53
-5.37
-2.44
0.74
3.66
6.05
7.83
9.09
10.00
10.65
11.03
11.02
10.46
9.28
7.46
5.12
2.46
-0.31
-3.01
-5.55
-7.83
-9.71
-11.03
-11.70
-11.75
-11.47
-11.31
-11.72
-12.94
-14.87
-17.15
-19.30
-20.93
-21.80
-21.79
-20.84
-18.83
-15.65
-11.26
-5.84
0.19
6.22
11.54
15.51
17.79
18.44
17.93
17.00
16.36
16.43
17.18
18.21
18.97
19.03
18.25
16.70
14.56
12.04
9.35
6.68
4.30
2.43
1.09
0.15
-0.77
-2.03
-3.89
-6.35
-9.12
-11.72
-13.55
-14.17
-13.41
-11.43
-8.77
-6.00
-3.60
-1.74
-0.34
0.77
1.63
2.12
2.10
1.63
1.04
0.87
1.48
2.90
4.77
6.55
7.81
8.40
8.46
8.23
7.87
7.40
6.78
6.00
5.15
4.39
3.87
3.62
3.61
3.75
4.04
4.65
5.91
8.17
11.65
16.28
21.59
26.87
31.34
34.48
36.08
36.28
35.33
33.44
30.73
27.27
23.21
18.87
14.61
10.71
7.22
4.00
0.80
-2.51
-5.87
-9.07
-11.88
-14.16
-15.96
-17.40
-18.60
-19.64
-20.59
-21.54
-22.61
-23.92
-25.42
-26.86
-27.78
-27.70
-26.30
-23.53
-19.66
-15.14
-10.48
-6.16
-2.52
0.22
2.00
2.92
3.21
3.20
3.15
3.28
3.69
4.38
5.24
6.16
6.94
7.37
7.24
6.46
5.07
3.30
1.44
-0.36
-2.13
-4.23
-7.10
-11.08
-16.06
-21.43
-26.16
-29.19
-29.86
-28.15
-24.67
-20.43
-16.38
-13.06
-10.54
-8.55
-6.75
-4.99
-3.42
-2.36
-2.09
-2.70
-3.90
-5.23
-6.19
-6.47
-6.08
-5.27
-4.34
-3.48
-2.66
-1.70
-0.42
1.12
2.70
3.93
4.49
4.18
3.09
1.47
-0.35
-2.05
-3.43
-4.37
-4.91
-5.08
-4.91
-4.37
-3.44
-2.14
-0.57
1.05
2.51
3.62
4.33
4.69
4.79
4.75
4.61
4.39
4.08
3.70
3.26
2.86
2.59
2.55
2.77
3.16
3.55
3.69
3.36
2.44
0.95
-0.99
-3.13
-5.15
-6.72
-7.52
-7.31
-6.05
-3.84
-0.96
2.33
5.78
9.28
12.75
16.10
19.19
21.82
23.84
25.18
25.92
26.21
26.19
25.89
25.23
24.05
22.30
20.08
17.69
15.42
13.43
11.61
9.65
7.25
4.33
1.14
-1.86
-4.25
-5.82
-6.65
-6.92
-6.71
-5.95
-4.48
-2.29
0.36
2.98
5.11
6.57
7.55
8.44
9.61
11.16
12.92
14.55
15.78
16.53
16.84
16.72
16.07
14.69
12.53
9.84
7.08
4.75
3.10
1.92
0.69
-1.13
-3.84
-7.32
-11.09
-14.61
-17.39
-19.16
-19.82
-19.39
-17.94
-15.65
-12.79
-9.68
-6.69
-4.16
-2.41
-1.67
-1.98
-3.18
-4.94
-6.82
-8.44
-9.61
-10.30
-10.57
-10.42
-9.83
-8.75
-7.30
-5.77
-4.53
-3.91
-4.01
-4.71
-5.82
-7.12
-8.47
-9.66
-10.41
-10.32
-9.04
-6.51
-3.01
0.84
4.37
7.07
8.74
9.49
9.57
9.18
8.39
7.10
5.16
2.51
-0.77
-4.44
-8.17
-11.66
-14.77
-17.55
-20.17
-22.82
-25.59
-28.50
-31.53
-34.67
-37.89
-41.07
-43.93
-46.04
-46.98
-46.47
-44.47
-41.19
-36.93
-32.02
-26.71
-21.18
-15.62
-10.20
-5.07
-0.40
3.74
7.30
10.33
12.90
15.11
17.06
18.81
20.35
21.70
22.97
24.38
26.19
28.55
31.34
34.11
36.21
37.03
36.28
34.15
31.18
28.05
25.27
22.96
20.87
18.63
15.92
12.72
9.23
5.73
2.36
-0.93
-4.39
-8.23
-12.42
-16.67
-20.50
-23.47
-25.40
-26.45
-27.03
-27.60
-28.46
-29.61
-30.86
-31.96
-32.69
-33.00
-32.94
-32.51
-31.69
-30.30
-28.10
-24.83
-20.27
-14.35
-7.22
0.72
8.88
16.55
23.13
28.33
32.20
35.16
37.75
40.42
43.38
46.61
49.97
53.22
55.90
57.20
55.97
51.03
41.74
28.47
12.67
-3.46
-17.98
-29.75
-38.79
-45.80
-51.35
-55.38
-57.17
-55.87
-51.14
-43.50
-34.12
-24.34
-15.11
-6.68
1.22
9.01
16.76
23.97
29.68
32.88
32.98
30.28
26.08
22.26
20.58
21.87
25.52
29.71
32.29
31.83
28.31
22.90
17.11
11.92
7.21
2.20
-3.71
-10.13
-15.65
-18.49
-17.55
-13.15
-6.98
-1.31
2.06
2.50
0.60
-2.32
-4.94
-6.47
-6.77
-6.14
-5.04
-3.88
-2.86
-2.20
-2.12
-2.92
-4.83
-7.87
-11.72
-15.79
-19.34
-21.66
-22.29
-21.10
-18.33
-14.54
-10.46
-6.76
-3.82
-1.63
0.15
1.96
4.04
6.34
8.49
10.06
10.77
10.62
9.89
8.96
8.15
7.61
7.32
7.05
6.52
5.49
3.81
1.49
-1.32
-4.35
-7.29
-9.82
-11.68
-12.66
-12.68
-11.74
-9.98
-7.62
-4.91
-2.11
0.56
2.89
4.74
6.05
6.99
7.92
9.37
11.86
15.66
20.60
26.03
31.03
34.61
36.09
35.25
32.37
28.09
23.17
18.23
13.55
9.11
4.66
0.11
-4.25
-7.74
-9.50
-8.96
-6.08
-1.55
3.52
8.01
11.15
12.69
12.72
11.42
8.88
5.10
0.19
-5.42
-11.06
-15.96
-19.55
-21.68
-22.61
-22.89
-23.16
-23.99
-25.67
-28.16
-31.02
-33.48
-34.70
-34.06
-31.42
-27.23
-22.35
-17.79
-14.25
-11.97
-10.74
-10.12
-9.73
-9.39
-9.15
-9.16
-9.54
-10.27
-11.18
-11.98
-12.42
-12.31
-11.67
-10.71
-9.76
-9.21
-9.38
-10.48
-12.49
-15.12
-17.87
-20.05
-21.00
-20.20
-17.55
-13.32
-8.12
-2.67
2.48
7.04
10.98
14.38
17.29
19.57
21.04
21.53
21.04
19.73
17.90
15.90
14.02
12.48
11.38
10.62
9.96
8.98
7.19
4.24
0.11
-4.78
-9.55
-13.08
-14.31
-12.67
-8.29
-2.00
4.92
11.16
15.76
18.45
19.47
19.46
19.06
18.67
18.45
18.35
18.31
18.27
18.17
17.85
17.07
15.55
13.09
9.74
5.80
1.71
-2.09
-5.27
-7.69
-9.33
-10.16
-10.16
-9.25
-7.43
-4.87
-1.86
1.21
3.99
6.34
8.33
10.20
12.18
14.28
16.30
17.84
18.49
17.98
16.32
13.73
10.55
7.22
4.13
1.65
0.04
-0.66
-0.65
-0.42
-0.56
-1.52
-3.35
-5.60
-7.40
-7.80
-6.13
-2.24
3.44
10.03
16.53
22.02
25.80
27.48
26.90
24.22
19.81
14.33
8.62
3.54
-0.17
-2.13
-2.40
-1.48
-0.19
0.60
0.15
-1.91
-5.56
-10.32
-15.41
-19.84
-22.63
-23.03
-20.70
-15.86
-9.24
-1.87
5.18
11.08
15.39
17.99
18.97
18.50
16.78
14.11
10.92
7.71
4.93
2.86
1.52
0.70
0.12
-0.45
-1.11
-1.87
-2.72
-3.66
-4.67
-5.57
-6.00
-5.48
-3.57
-0.13
4.66
10.35
16.33
21.97
26.70
30.04
31.59
31.19
28.94
25.25
20.73
15.93
11.29
6.98
3.00
-0.68
-4.12
-7.29
-10.21
-12.87
-15.34
-17.72
-20.25
-23.20
-26.78
-30.93
-35.17
-38.68
-40.54
-40.08
-37.21
-32.47
-26.78
-21.16
-16.33
-12.69
-10.31
-9.20
-9.39
-10.96
-13.85
-17.76
-22.13
-26.26
-29.61
-31.99
-33.66
-35.18
-37.16
-40.02
-43.81
-48.22
-52.67
-56.34
-58.38
-57.97
-54.65
-48.39
-39.79
-29.90
-19.89
-10.77
-3.14
2.75
6.85
9.15
9.68
8.60
6.40
3.88
1.94
1.30
2.24
4.58
7.76
11.09
13.89
15.54
15.46
13.18
8.60
2.27
-4.53
-9.98
-12.31
-10.43
-4.29
5.12
16.24
27.52
37.80
46.48
53.26
57.92
60.21
59.97
57.30
52.73
47.17
41.63
36.95
33.50
31.09
29.04
26.47
22.57
16.85
9.35
0.56
-8.61
-17.03
-23.55
-27.27
-27.70
-24.96
-19.71
-12.98
-5.87
0.76
6.48
11.23
15.21
18.68
21.78
24.60
27.12
29.28
31.04
32.30
32.94
32.86
31.99
30.39
28.20
25.70
23.09
20.51
17.92
15.17
12.21
9.24
6.77
5.55
6.25
9.13
13.87
19.61
25.21
29.60
32.06
32.30
30.40
26.67
21.48
15.23
8.34
1.37
-5.05
-10.30
-13.96
-16.03
-17.01
-17.79
-19.44
-22.78
-28.20
-35.50
-44.03
-52.80
-60.72
-66.63
-69.38
-68.08
-62.24
-52.40
-40.15
-28.06
-18.84
-14.27
-14.46
-17.88
-22.22
-25.51
-26.82
-26.16
-23.99
-20.64
-16.35
-11.58
-7.35
-5.13
-6.12
-10.44
-16.81
-23.05
-27.12
-28.06
-26.26
-22.86
-18.97
-14.97
-10.62
-5.25
1.62
10.07
19.77
29.93
39.61
47.74
53.34
55.64
54.31
49.65
42.64
34.68
27.24
21.41
17.56
15.39
14.08
12.79
10.97
8.57
5.93
3.55
1.90
1.26
1.86
4.01
8.13
14.58
23.36
33.88
44.85
54.68
61.98
66.02
66.91
65.43
62.60
59.28
55.96
52.76
49.62
46.37
42.76
38.56
33.64
28.20
22.81
18.32
15.52
14.73
15.60
17.17
18.23
17.69
15.01
10.25
3.99
-2.83
-9.20
-14.26
-17.47
-18.66
-18.09
-16.34
-14.11
-12.08
-10.81
-10.64
-11.66
-13.68
-16.23
-18.59
-20.01
-19.96
-18.31
-15.40
-11.89
-8.54
-6.06
-4.94
-5.50
-7.81
-11.64
-16.40
-21.06
-24.38
-25.24
-23.03
-17.87
-10.56
-2.29
5.77
12.82
18.47
22.64
25.41
26.82
26.82
25.37
22.49
18.44
13.67
8.75
4.20
0.36
-2.70
-5.12
-7.20
-9.23
-11.52
-14.32
-17.89
-22.38
-27.65
-33.17
-37.97
-40.88
-40.93
-37.65
-31.38
-23.12
-14.17
-5.75
1.32
6.71
10.43
12.58
13.20
12.24
9.70
5.79
0.95
-4.19
-9.10
-13.51
-17.55
-21.63
-26.14
-31.28
-36.91
-42.62
-47.83
-51.90
-54.22
-54.26
-51.69
-46.47
-38.97
-29.93
-20.27
-10.86
-2.32
4.99
10.90
15.32
18.25
19.74
19.98
19.32
18.22
17.11
16.30
15.95
16.03
16.36
16.64
16.48
15.46
13.28
9.83
5.23
-0.05
-5.32
-9.70
-12.31
-12.47
-9.86
-4.60
2.72
11.27
20.14
28.53
35.90
41.92
46.47
49.51
51.03
51.05
49.67
47.07
43.64
39.84
36.16
32.93
30.28
28.08
26.06
23.93
21.36
18.08
13.80
8.36
1.81
-5.36
-12.23
-17.59
-20.33
-19.83
-16.24
-10.40
-3.59
2.95
8.39
12.39
15.01
16.38
16.51
15.23
12.32
7.75
1.82
-4.83
-11.43
-17.33
-22.22
-26.14
-29.36
-32.29
-35.32
-38.82
-43.08
-48.18
-53.85
-59.30
-63.34
-64.74
-62.63
-56.86
-48.11
-37.62
-26.86
-17.14
-9.39
-4.14
-1.47
-1.11
-2.44
-4.70
-7.13
-9.17
-10.55
-11.20
-11.16
-10.48
-9.25
-7.69
-6.17
-5.19
-5.24
-6.57
-9.08
-12.27
-15.32
-17.24
-17.10
-14.28
-8.69
-0.77
8.56
18.20
27.17
34.78
40.67
44.70
46.86
47.17
45.72
42.78
38.83
34.48
30.32
26.81
24.07
21.94
20.03
17.99
15.59
12.84
9.79
6.39
2.44
-2.30
-7.84
-13.61
-18.55
-21.39
-21.18
-17.74
-11.79
-4.54
2.82
9.50
15.30
20.30
24.59
28.05
30.39
31.36
30.92
29.31
26.91
24.10
21.12
18.03
14.74
11.05
6.76
1.74
-3.99
-10.26
-16.78
-23.26
-29.41
-34.91
-39.30
-41.95
-42.22
-39.73
-34.63
-27.65
-19.90
-12.38
-5.70
0.09
5.14
9.53
12.94
14.82
14.75
12.76
9.45
5.78
2.63
0.40
-1.08
-2.39
-4.17
-6.85
-10.59
-15.25
-20.55
-26.10
-31.35
-35.60
-38.05
-38.05
-35.28
-29.99
-22.94
-15.23
-7.95
-1.90
2.57
5.52
7.21
7.90
7.74
6.75
4.96
2.51
-0.31
-3.12
-5.61
-7.67
-9.44
-11.23
-13.40
-16.19
-19.72
-23.98
-28.76
-33.67
-38.01
-40.91
-41.50
-39.14
-33.74
-25.85
-16.45
-6.67
2.51
10.51
17.06
22.10
25.57
27.38
27.45
25.86
22.88
18.95
14.59
10.22
6.08
2.22
-1.51
-5.30
-9.38
-13.89
-18.88
-24.15
-29.25
-33.41
-35.68
-35.11
-31.21
-24.08
-14.49
-3.61
7.34
17.46
26.30
33.75
39.78
44.31
47.12
48.04
47.09
44.49
40.68
36.08
31.03
25.78
20.52
15.43
10.76
6.69
3.27
0.30
-2.58
-5.79
-9.54
-13.60
-17.23
-19.31
-18.68
-14.56
-6.90
3.52
15.33
26.98
37.20
45.22
50.76
53.82
54.46
52.74
48.80
42.99
35.99
28.70
21.93
16.17
11.39
7.16
2.88
-1.84
-7.06
-12.48
-17.78
-22.81
-27.74
-32.84
-38.19
-43.38
-47.49
-49.51
-48.79
-45.37
-39.87
-33.12
-25.74
-17.99
-9.97
-1.90
5.63
11.78
15.83
17.54
17.31
15.97
14.47
13.47
13.28
13.87
15.08
16.76
18.89
21.53
24.71
28.33
32.03
35.15
36.96
36.90
35.01
31.96
28.91
27.07
27.18
29.22
32.48
35.90
38.54
39.85
39.74
38.31
35.76
32.19
27.76
22.73
17.50
12.59
8.44
5.27
3.08
1.67
0.77
0.07
-0.71
-1.84
-3.58
-6.16
-9.81
-14.53
-20.12
-26.03
-31.44
-35.42
-37.23
-36.59
-33.77
-29.50
-24.64
-19.83
-15.38
-11.21
-7.13
-2.99
1.15
5.02
8.28
10.56
11.62
11.35
9.87
7.48
4.65
1.82
-0.74
-3.09
-5.47
-8.26
-11.76
-16.03
-20.91
-26.08
-31.03
-35.17
-37.88
-38.64
-37.21
-33.78
-28.96
-23.62
-18.69
-14.82
-12.30
-11.03
-10.71
-10.98
-11.54
-12.19
-12.78
-13.26
-13.65
-14.07
-14.71
-15.71
-17.07
-18.53
-19.65
-20.08
-19.79
-19.26
-19.35
-20.90
-24.25
-28.95
-33.74
-37.03
-37.45
-34.41
-28.31
-20.29
-11.83
-4.12
2.16
6.93
10.46
13.05
14.87
15.89
15.99
15.15
13.48
11.22
8.60
5.76
2.73
-0.52
-4.01
-7.69
-11.46
-15.26
-19.08
-22.93
-26.73
-30.21
-32.81
-33.80
-32.49
-28.53
-22.14
-14.12
-5.60
2.28
8.80
13.74
17.28
19.75
21.28
21.78
20.93
18.45
14.28
8.66
2.17
-4.46
-10.53
-15.52
-19.14
-21.38
-22.39
-22.44
-21.86
-20.99
-20.07
-19.14
-17.98
-16.22
-13.48
-9.58
-4.71
0.74
6.25
11.44
16.12
20.22
23.67
26.33
28.01
28.57
28.01
26.45
24.13
21.33
18.43
15.87
14.08
13.24
13.08
12.95
12.04
9.81
6.23
1.87
-2.50
-6.20
-8.86
-10.45
-10.94
-10.19
-7.82
-3.51
2.74
10.45
18.71
26.47
32.87
37.44
40.07
40.92
40.15
37.91
34.26
29.34
23.46
17.13
11.06
5.89
2.10
-0.27
-1.57
-2.49
-3.83
-6.21
-9.94
-14.87
-20.51
-26.15
-31.10
-34.79
-36.87
-37.21
-35.87
-33.06
-29.11
-24.34
-19.09
-13.61
-8.13
-2.87
1.94
6.08
9.36
11.64
12.86
13.06
12.30
10.74
8.58
6.10
3.58
1.28
-0.61
-2.00
-2.88
-3.36
-3.60
-3.88
-4.57
-6.00
-8.30
-11.19
-14.01
-15.85
-15.90
-13.70
-9.38
-3.56
2.85
8.97
14.16
18.09
20.71
22.09
22.36
21.66
20.17
18.17
16.01
14.03
12.46
11.39
10.75
10.35
10.01
9.55
8.91
8.08
7.04
5.72
3.99
1.69
-1.24
-4.64
-8.09
-10.96
-12.65
-12.72
-11.11
-8.08
-4.15
0.08
4.06
7.36
9.61
10.60
10.24
8.67
6.20
3.31
0.49
-1.82
-3.40
-4.22
-4.53
-4.69
-5.12
-6.11
-7.79
-10.12
-12.90
-15.87
-18.68
-20.90
-22.09
-21.83
-19.89
-16.33
-11.49
-5.92
-0.18
5.30
10.19
14.26
17.30
19.11
19.56
18.73
16.91
14.57
12.19
10.15
8.57
7.32
6.14
4.75
3.02
0.99
-1.21
-3.50
-5.95
-8.80
-12.19
-15.99
-19.62
-22.12
-22.54
-20.29
-15.43
-8.69
-1.16
6.06
12.23
16.96
20.22
22.11
22.78
22.37
21.01
18.87
16.12
12.98
9.70
6.51
3.59
1.00
-1.31
-3.49
-5.67
-7.92
-10.24
-12.68
-15.32
-18.29
-21.56
-24.80
-27.33
-28.31
-27.12
-23.64
-18.36
-12.20
-6.11
-0.88
3.16
5.94
7.62
8.36
8.33
7.62
6.37
4.70
2.74
0.66
-1.44
-3.40
-5.11
-6.52
-7.62
-8.51
-9.37
-10.45
-12.00
-14.20
-17.04
-20.21
-23.08
-24.84
-24.75
-22.45
-18.08
-12.27
-5.91
0.18
5.44
9.59
12.57
14.39
15.07
14.63
13.17
10.92
8.20
5.36
2.71
0.42
-1.47
-3.05
-4.45
-5.82
-7.30
-9.07
-11.32
-14.18
-17.64
-21.37
-24.74
-26.90
-27.03
-24.74
-20.15
-13.95
-7.13
-0.63
4.90
9.22
12.37
14.50
15.72
16.05
15.47
14.00
11.73
8.89
5.76
2.64
-0.25
-2.79
-5.00
-7.00
-8.98
-11.18
-13.79
-16.94
-20.60
-24.49
-28.08
-30.70
-31.66
-30.53
-27.29
-22.35
-16.39
-10.16
-4.23
1.03
5.47
8.99
11.54
13.06
13.58
13.26
12.35
11.14
9.87
8.68
7.62
6.68
5.81
4.96
4.02
2.81
1.11
-1.31
-4.60
-8.67
-13.14
-17.29
-20.18
-20.97
-19.19
-14.95
-8.97
-2.25
4.22
9.83
14.40
18.02
20.84
22.85
23.86
23.67
22.22
19.66
16.33
12.68
9.08
5.85
3.12
0.88
-1.05
-2.92
-5.07
-7.81
-11.30
-15.54
-20.21
-24.75
-28.38
-30.27
-29.74
-26.51
-20.78
-13.28
-4.98
3.13
10.30
16.19
20.73
24.02
26.20
27.35
27.54
26.89
25.60
23.90
22.05
20.21
18.45
16.72
14.99
13.23
11.50
9.88
8.35
6.77
4.81
2.14
-1.34
-5.30
-8.89
-10.98
-10.52
-6.92
-0.28
8.67
18.84
29.15
38.67
46.65
52.46
55.56
55.63
52.80
47.66
41.16
34.28
27.69
21.54
15.64
9.65
3.44
-2.86
-9.02
-14.87
-20.48
-26.11
-32.08
-38.55
-45.43
-52.40
-59.00
-64.74
-69.23
-72.20
-73.54
-73.25
-71.35
-67.79
-62.43
-55.10
-45.86
-35.23
-24.21
-14.11
-6.08
-0.70
2.18
3.29
3.66
4.12
5.13
6.72
8.61
10.40
11.68
12.20
11.93
11.02
9.76
8.48
7.36
6.37
5.30
3.95
2.20
0.14
-1.93
-3.59
-4.31
-3.64
-1.28
2.85
8.46
15.04
21.94
28.57
34.56
39.79
44.29
48.13
51.34
53.85
55.55
56.38
56.33
55.46
53.89
51.80
49.39
46.83
44.25
41.73
39.31
37.06
35.08
33.50
32.29
31.16
29.46
26.35
21.20
13.80
4.58
-5.55
-15.63
-24.98
-33.39
-40.89
-47.52
-52.98
-56.65
-57.82
-56.05
-51.42
-44.54
-36.37
-27.86
-19.81
-12.69
-6.75
-2.10
1.23
3.20
3.82
3.18
1.50
-0.92
-3.77
-6.78
-9.76
-12.58
-15.11
-17.21
-18.69
-19.45
-19.50
-19.01
-18.30
-17.73
-17.61
-18.12
-19.16
-20.42
-21.31
-21.13
-19.17
-14.95
-8.41
0.01
9.42
18.70
26.78
33.01
37.24
39.72
40.82
40.73
39.44
36.95
33.55
30.02
27.39
26.52
27.59
29.94
32.41
33.87
33.76
32.21
29.91
27.54
25.54
23.90
22.37
20.59
18.27
15.19
11.32
6.90
2.52
-0.88
-2.24
-0.81
3.56
10.37
18.52
26.77
33.95
39.22
42.11
42.46
40.44
36.49
31.27
25.54
20.02
15.16
11.10
7.63
4.42
1.18
-2.24
-5.82
-9.51
-13.22
-16.94
-20.70
-24.46
-28.19
-31.90
-35.75
-40.02
-45.00
-50.71
-56.60
-61.61
-64.35
-63.69
-59.18
-51.26
-41.12
-30.29
-20.16
-11.69
-5.37
-1.25
0.87
1.37
0.79
-0.29
-1.23
-1.53
-0.97
0.39
2.14
3.77
4.84
5.10
4.56
3.40
1.83
-0.03
-2.16
-4.55
-7.08
-9.41
-11.03
-11.42
-10.28
-7.66
-3.92
0.44
5.00
9.53
13.96
18.21
21.97
24.70
25.82
25.06
22.56
18.92
14.86
10.96
7.48
4.53
2.23
0.93
1.05
2.79
5.89
9.57
12.86
14.94
15.39
14.24
11.68
7.93
3.20
-2.20
-7.65
-12.25
-15.05
-15.41
-13.29
-9.35
-4.63
-0.18
3.31
5.68
7.12
7.89
8.09
7.60
6.29
4.25
1.96
0.14
-0.54
0.22
2.14
4.56
6.66
7.82
7.74
6.42
4.07
0.95
-2.59
-6.15
-9.25
-11.41
-12.25
-11.63
-9.64
-6.64
-3.09
0.51
3.74
6.32
8.15
9.27
9.81
9.91
9.65
9.01
7.99
6.61
5.03
3.46
2.07
0.89
-0.22
-1.52
-3.28
-5.65
-8.60
-11.90
-15.23
-18.15
-20.24
-21.06
-20.25
-17.63
-13.34
-7.86
-1.89
3.79
8.61
12.32
14.97
16.73
17.71
17.86
17.03
15.19
12.47
9.26
5.93
2.72
-0.38
-3.56
-6.97
-10.55
-14.11
-17.42
-20.38
-23.09
-25.65
-28.07
-30.13
-31.40
-31.45
-30.03
-27.22
-23.38
-19.04
-14.71
-10.74
-7.32
-4.50
-2.30
-0.83
-0.23
-0.61
-1.96
-4.14
-6.82
-9.68
-12.38
-14.73
-16.61
-18.02
-19.10
-20.13
-21.46
-23.42
-26.09
-29.15
-31.93
-33.56
-33.35
-31.04
-26.91
-21.65
-16.10
-10.96
-6.63
-3.26
-0.84
0.57
0.88
0.00
-1.98
-4.78
-7.99
-11.19
-14.16
-16.83
-19.20
-21.32
-23.15
-24.69
-26.05
-27.49
-29.30
-31.61
-34.28
-36.87
-38.79
-39.55
-38.82
-36.38
-32.03
-25.56
-16.94
-6.51
4.85
15.86
25.10
31.50
34.60
34.59
32.12
28.05
23.22
18.43
14.42
11.86
11.21
12.49
15.24
18.59
21.51
23.20
23.28
21.91
19.58
16.93
14.54
12.71
11.54
10.88
10.57
10.47
10.58
11.05
12.05
13.72
15.97
18.53
20.94
22.77
23.72
23.70
22.83
21.30
19.29
16.88
14.04
10.70
6.73
2.14
-2.99
-8.46
-13.90
-18.81
-22.63
-24.74
-24.72
-22.40
-18.01
-12.15
-5.66
0.55
5.83
9.86
12.72
14.71
16.28
17.77
19.35
21.05
22.80
24.45
25.85
26.87
27.46
27.61
27.33
26.63
25.48
23.80
21.49
18.45
14.65
10.20
5.40
0.77
-3.01
-5.26
-5.52
-3.70
-0.15
4.46
9.38
14.03
18.09
21.45
24.10
25.95
26.86
26.71
25.48
23.36
20.77
18.18
16.01
14.44
13.38
12.54
11.56
10.17
8.29
5.99
3.49
1.05
-1.02
-2.39
-2.73
-1.79
0.45
3.70
7.44
11.00
13.80
15.42
15.70
14.67
12.48
9.35
5.61
1.67
-2.04
-5.15
-7.46
-9.03
-10.06
-10.88
-11.74
-12.81
-14.17
-15.81
-17.65
-19.46
-20.84
-21.34
-20.50
-18.20
-14.63
-10.32
-5.85
-1.60
2.36
6.16
9.96
13.69
17.04
19.58
21.01
21.24
20.48
19.04
17.27
15.46
13.77
12.28
10.98
9.75
8.42
6.80
4.75
2.26
-0.50
-3.22
-5.48
-6.89
-7.15
-6.18
-4.10
-1.20
2.14
5.60
8.99
12.21
15.22
17.93
20.20
21.82
22.67
22.74
22.21
21.34
20.30
19.10
17.52
15.27
12.04
7.70
2.29
-3.99
-10.77
-17.63
-24.00
-29.25
-32.78
-34.27
-33.79
-31.85
-29.19
-26.54
-24.38
-22.82
-21.76
-21.11
-20.98
-21.65
-23.44
-26.46
-30.39
-34.61
-38.32
-40.92
-42.16
-42.23
-41.59
-40.77
-40.18
-40.09
-40.63
-41.81
-43.48
-45.25
-46.51
-46.57
-44.90
-41.39
-36.31
-30.24
-23.74
-17.20
-10.85
-4.80
0.73
5.46
9.18
11.94
14.07
16.05
18.22
20.60
22.90
24.63
25.26
24.45
22.05
18.11
12.98
7.21
1.58
-3.12
-6.22
-7.49
-7.07
-5.50
-3.41
-1.30
0.67
2.67
5.04
7.97
11.33
14.55
16.85
17.57
16.53
14.17
11.33
8.89
7.31
6.50
5.94
5.03
3.39
1.01
-1.80
-4.67
-7.30
-9.54
-11.37
-12.73
-13.50
-13.49
-12.50
-10.41
-7.26
-3.36
0.78
4.58
7.51
9.32
10.02
9.86
9.19
8.26
7.27
6.33
5.57
5.14
5.11
5.46
6.03
6.63
7.03
7.05
6.52
5.25
3.16
0.38
-2.63
-5.17
-6.52
-6.31
-4.62
-1.98
0.89
3.45
5.49
7.03
8.23
9.11
9.58
9.44
8.56
6.93
4.76
2.31
-0.08
-2.14
-3.66
-4.56
-4.89
-4.81
-4.58
-4.51
-4.89
-6.00
-8.00
-10.83
-14.16
-17.31
-19.50
-20.04
-18.62
-15.47
-11.28
-6.91
-3.11
-0.27
1.58
2.62
3.06
3.07
2.75
2.29
1.91
1.83
2.16
2.81
3.56
4.13
4.31
3.99
3.18
1.96
0.49
-0.91
-1.84
-1.88
-0.79
1.40
4.29
7.28
9.85
11.69
12.83
13.55
14.15
14.79
15.40
15.77
15.68
15.07
14.02
12.77
11.56
10.52
9.66
8.86
7.99
6.99
5.84
4.56
3.13
1.54
-0.16
-1.80
-3.05
-3.56
-3.08
-1.62
0.53
2.88
4.90
6.20
6.56
5.95
4.45
2.24
-0.38
-3.06
-5.36
-6.97
-7.79
-7.95
-7.76
-7.51
-7.26
-6.79
-5.67
-3.44
0.12
4.89
10.47
16.33
22.09
27.69
33.37
39.47
46.21
53.50
60.95
67.93
73.89
78.51
81.80
84.13
86.03
88.04
90.48
93.26
95.82
97.25
96.61
93.22
86.98
78.37
68.27
57.57
46.96
36.72
26.91
17.46
8.37
-0.23
-8.09
-14.89
-20.41
-24.54
-27.40
-29.28
-30.62
-31.77
-32.95
-34.21
-35.54
-36.98
-38.65
-40.67
-43.01
-45.36
-47.17
-47.88
-47.17
-45.16
-42.39
-39.57
-37.30
-35.85
-35.15
-34.95
-34.98
-35.01
-34.92
-34.52
-33.62
-32.03
-29.73
-26.95
-24.11
-21.60
-19.66
-18.23
-17.14
-16.23
-15.56
-15.29
-15.62
-16.52
-17.75
-18.87
-19.51
-19.44
-18.69
-17.50
-16.23
-15.29
-15.04
-15.71
-17.37
-19.86
-22.81
-25.69
-27.88
-28.82
-28.20
-26.02
-22.65
-18.75
-15.06
-12.20
-10.52
-10.04
-10.52
-11.56
-12.76
-13.81
-14.55
-14.98
-15.22
-15.46
-15.86
-16.50
-17.38
-18.40
-19.49
-20.64
-21.89
-23.31
-24.96
-26.87
-28.99
-31.16
-33.09
-34.45
-35.00
-34.79
-34.20
-33.87
-34.49
-36.56
-40.23
-45.34
-51.55
-58.38
-65.21
-71.20
-75.34
-76.60
-74.30
-68.45
-59.80
-49.68
-39.46
-30.20
-22.39
-15.94
-10.44
-5.47
-0.76
3.80
8.13
12.08
15.40
17.75
18.73
17.98
15.33
10.94
5.31
-0.87
-6.91
-12.33
-16.94
-20.76
-23.92
-26.55
-28.79
-30.71
-32.34
-33.57
-34.21
-34.01
-32.82
-30.79
-28.41
-26.36
-25.26
-25.33
-26.24
-27.24
-27.46
-26.25
-23.46
-19.32
-14.31
-8.90
-3.38
2.12
7.55
12.81
17.66
21.80
24.95
27.00
27.99
28.15
27.76
27.07
26.21
25.17
23.85
22.07
19.66
16.47
12.46
7.78
2.78
-1.95
-5.76
-8.12
-8.78
-7.81
-5.55
-2.39
1.39
5.60
10.05
14.42
18.19
20.77
21.74
21.02
18.94
16.05
12.98
10.17
7.86
6.14
4.98
4.30
3.89
3.44
2.52
0.72
-2.16
-5.92
-9.93
-13.22
-14.79
-13.91
-10.34
-4.46
2.94
10.87
18.49
25.19
30.70
34.94
37.91
39.65
40.26
39.89
38.88
37.62
36.51
35.87
35.84
36.39
37.29
38.14
38.49
37.86
35.95
32.74
28.52
23.95
19.85
17.03
16.11
17.29
20.41
24.95
30.19
35.34
39.73
42.84
44.38
44.30
42.75
40.01
36.43
32.40
28.27
24.28
20.61
17.23
13.98
10.59
6.76
2.24
-3.04
-8.91
-14.87
-20.14
-23.72
-24.76
-22.79
-17.99
-11.19
-3.61
3.48
9.14
12.87
14.59
14.48
12.78
9.90
6.36
2.85
0.16
-1.16
-0.96
0.44
2.31
3.85
4.42
3.73
1.85
-0.94
-4.29
-7.80
-11.04
-13.49
-14.58
-13.87
-11.25
-7.01
-1.78
3.72
8.97
13.76
18.08
21.89
24.93
26.71
26.77
24.83
21.04
15.90
10.11
4.28
-1.19
-6.15
-10.69
-15.05
-19.54
-24.42
-29.77
-35.35
-40.53
-44.41
-46.09
-44.98
-41.06
-34.90
-27.51
-20.05
-13.57
-8.77
-6.01
-5.29
-6.37
-8.85
-12.23
-15.99
-19.61
-22.65
-24.76
-25.68
-25.35
-23.92
-21.76
-19.44
-17.56
-16.53
-16.36
-16.50
-15.96
-13.65
-8.75
-1.14
8.51
18.95
28.72
36.70
42.47
46.32
48.91
50.82
52.13
52.38
50.92
47.37
42.00
35.66
29.50
24.41
20.65
17.78
14.94
11.27
6.19
-0.45
-8.43
-17.18
-25.79
-33.09
-37.81
-39.00
-36.39
-30.58
-22.86
-14.70
-7.25
-0.83
4.91
10.67
16.83
23.10
28.49
31.82
32.24
29.79
25.45
20.71
17.05
15.35
15.75
17.66
20.04
21.58
20.87
16.85
9.14
-1.44
-12.80
-21.93
-25.96
-23.45
-15.07
-3.45
8.08
17.03
22.74
26.38
29.83
34.31
39.56
44.06
46.06
44.83
41.21
37.24
35.00
35.45
37.88
40.35
40.68
37.42
30.39
20.57
9.52
-1.19
-10.36
-17.14
-20.90
-21.21
-17.92
-11.43
-2.63
7.24
17.04
26.08
34.16
41.34
47.55
52.42
55.44
56.32
55.22
52.63
48.98
44.28
38.12
30.02
20.09
9.21
-1.22
-9.96
-16.66
-21.91
-26.69
-31.57
-36.13
-39.04
-38.86
-34.83
-27.39
-17.93
-8.20
0.41
7.19
12.11
15.50
17.70
18.89
18.99
17.76
14.89
10.25
4.06
-3.07
-10.30
-16.85
-22.34
-26.87
-30.98
-35.30
-40.24
-45.83
-51.65
-56.98
-60.87
-62.29
-60.34
-54.59
-45.35
-33.82
-21.84
-11.27
-3.43
1.41
3.99
5.56
7.28
9.63
12.39
14.79
16.09
15.89
14.27
11.62
8.29
4.49
0.17
-4.73
-10.21
-16.11
-22.16
-28.07
-33.51
-38.13
-41.51
-43.19
-42.82
-40.21
-35.40
-28.59
-20.14
-10.49
-0.22
9.98
19.35
27.12
32.76
36.03
37.08
36.37
34.59
32.45
30.59
29.37
28.88
28.87
28.92
28.58
27.48
25.42
22.40
18.58
14.29
10.04
6.52
4.41
4.19
5.98
9.47
13.93
18.53
22.48
25.30
26.80
27.10
26.46
25.13
23.24
20.73
17.43
13.21
8.06
2.24
-3.85
-9.74
-15.06
-19.63
-23.50
-26.83
-29.93
-33.14
-36.77
-41.04
-45.86
-50.75
-54.82
-57.00
-56.36
-52.46
-45.51
-36.24
-25.67
-14.73
-4.10
5.78
14.59
21.98
27.60
31.19
32.75
32.58
31.21
29.21
27.07
25.08
23.33
21.81
20.45
19.14
17.76
16.16
14.16
11.61
8.41
4.67
0.67
-3.05
-5.84
-7.04
-6.26
-3.46
1.02
6.58
12.56
18.46
23.94
28.80
32.89
36.01
37.94
38.52
37.69
35.59
32.46
28.62
24.40
20.08
15.86
11.84
8.02
4.32
0.76
-2.58
-5.56
-8.06
-10.18
-12.22
-14.61
-17.63
-21.16
-24.55
-26.79
-26.87
-24.21
-18.92
-11.84
-4.21
2.72
8.12
11.75
13.90
15.17
16.09
16.97
17.78
18.26
18.12
17.23
15.70
13.82
11.97
10.40
9.25
8.53
8.09
7.61
6.38
3.42
-2.31
-11.36
-23.37
-36.93
-49.93
-60.37
-67.08
-70.11
-70.50
-69.62
-68.48
-67.32
-65.75
-63.19
-59.35
-54.45
-49.12
-44.03
-39.67
-36.09
-33.13
-30.55
-28.33
-26.68
-25.94
-26.29
-27.62
-29.51
-31.46
-33.07
-34.30
-35.37
-36.63
-38.21
-39.87
-40.86
-40.14
-36.72
-30.02
-20.14
-7.88
5.51
18.69
30.64
40.84
49.24
56.02
61.40
65.36
67.78
68.49
67.41
64.63
60.37
54.85
48.30
40.94
33.09
25.23
18.00
12.06
7.92
5.76
5.42
6.54
8.77
11.84
15.61
19.92
24.44
28.66
32.04
34.19
35.03
34.82
33.94
32.67
31.09
29.08
26.46
23.23
19.54
15.67
11.82
8.10
4.47
0.89
-2.55
-5.69
-8.29
-10.23
-11.58
-12.61
-13.70
-15.20
-17.26
-19.82
-22.50
-24.68
-25.60
-24.52
-20.99
-15.06
-7.39
0.87
8.36
13.91
16.89
17.32
15.75
12.95
9.59
6.02
2.35
-1.42
-5.17
-8.61
-11.40
-13.30
-14.31
-14.70
-14.82
-14.97
-15.24
-15.59
-15.97
-16.45
-17.25
-18.50
-20.08
-21.56
-22.24
-21.49
-19.02
-15.05
-10.25
-5.41
-1.13
2.34
5.07
7.21
8.88
10.11
10.88
11.26
11.41
11.49
11.62
11.79
11.91
11.85
11.52
10.88
9.92
8.61
6.90
4.72
2.06
-0.91
-3.87
-6.31
-7.74
-7.83
-6.62
-4.44
-1.86
0.61
2.74
4.54
6.16
7.62
8.76
9.21
8.68
7.10
4.67
1.84
-0.93
-3.32
-5.21
-6.65
-7.81
-8.90
-10.14
-11.75
-13.93
-16.79
-20.23
-23.93
-27.32
-29.77
-30.85
-30.44
-28.79
-26.32
-23.47
-20.48
-17.45
-14.35
-11.25
-8.35
-6.00
-4.54
-4.17
-4.79
-6.08
-7.60
-8.94
-9.86
-10.23
-10.04
-9.22
-7.76
-5.69
-3.23
-0.79
1.16
2.36
2.91
3.32
4.25
6.14
8.94
12.02
14.54
15.81
15.67
14.54
13.13
12.11
11.78
11.99
12.34
12.43
12.14
11.62
11.12
10.77
10.53
10.19
9.59
8.80
7.98
7.35
6.87
6.24
4.99
2.79
-0.31
-3.79
-6.86
-8.81
-9.27
-8.33
-6.38
-3.94
-1.45
0.69
2.17
2.69
2.15
0.68
-1.35
-3.54
-5.64
-7.67
-9.79
-12.07
-14.29
-15.97
-16.64
-16.06
-14.38
-12.00
-9.49
-7.38
-6.13
-6.11
-7.47
-10.00
-13.02
-15.50
-16.46
-15.34
-12.24
-7.90
-3.29
0.74
3.74
5.63
6.61
6.92
6.75
6.24
5.45
4.49
3.49
2.65
2.20
2.29
2.93
3.89
4.75
5.10
4.70
3.55
1.81
-0.43
-3.18
-6.52
-10.33
-14.11
-16.98
-18.02
-16.67
-13.03
-7.87
-2.31
2.65
6.46
9.00
10.49
11.21
11.40
11.22
10.80
10.23
9.56
8.75
7.73
6.48
5.11
3.77
2.61
1.70
0.94
0.14
-0.91
-2.37
-4.30
-6.64
-9.14
-11.42
-13.03
-13.62
-13.06
-11.47
-9.22
-6.65
-4.04
-1.50
0.86
2.85
4.16
4.48
3.63
1.71
-0.91
-3.76
-6.36
-8.40
-9.73
-10.33
-10.33
-9.93
-9.51
-9.45
-10.10
-11.60
-13.81
-16.29
-18.44
-19.75
-19.91
-18.89
-16.91
-14.32
-11.52
-8.84
-6.53
-4.75
-3.52
-2.72
-2.16
-1.54
-0.70
0.44
1.74
2.96
3.82
4.11
3.79
2.97
1.89
0.84
0.03
-0.46
-0.75
-1.10
-1.89
-3.42
-5.84
-9.01
-12.49
-15.56
-17.53
-17.91
-16.69
-14.29
-11.41
-8.66
-6.29
-4.14
-1.83
1.04
4.55
8.52
12.51
16.02
18.61
19.95
19.86
18.29
15.48
11.94
8.37
5.44
3.58
2.76
2.58
2.43
1.77
0.30
-1.89
-4.40
-6.69
-8.22
-8.63
-7.83
-6.00
-3.50
-0.77
1.77
3.84
5.29
6.15
6.53
6.64
6.64
6.66
6.78
7.01
7.32
7.64
7.87
7.92
7.76
7.45
7.09
6.83
6.69
6.52
5.99
4.71
2.38
-0.97
-4.93
-8.82
-11.93
-13.76
-14.17
-13.34
-11.63
-9.39
-6.87
-4.25
-1.68
0.64
2.42
3.44
3.59
2.95
1.78
0.40
-0.87
-1.78
-2.28
-2.43
-2.47
-2.64
-3.16
-4.07
-5.22
-6.34
-7.21
-7.70
-7.95
-8.21
-8.75
-9.71
-10.93
-12.04
-12.52
-11.99
-10.36
-7.85
-4.93
-2.08
0.40
2.43
4.17
5.79
7.38
8.85
10.01
10.63
10.63
10.02
8.92
7.52
5.96
4.35
2.74
1.15
-0.49
-2.22
-4.12
-6.20
-8.44
-10.84
-13.37
-16.00
-18.60
-20.94
-22.64
-23.32
-22.73
-20.90
-18.10
-14.82
-11.50
-8.51
-5.99
-3.98
-2.50
-1.64
-1.55
-2.33
-3.92
-6.07
-8.37
-10.42
-11.93
-12.88
-13.42
-13.76
-14.01
-14.13
-13.98
-13.51
-12.88
-12.49
-12.77
-13.90
-15.59
-17.16
-17.77
-16.81
-14.12
-10.01
-5.07
0.15
5.29
10.23
14.94
19.40
23.42
26.78
29.25
30.68
31.11
30.71
29.75
28.51
27.19
25.88
24.55
23.11
21.49
19.68
17.68
15.51
13.14
10.50
7.56
4.37
1.04
-2.24
-5.29
-7.96
-10.07
-11.44
-11.90
-11.29
-9.60
-6.90
-3.39
0.67
5.00
9.33
13.34
16.76
19.31
20.86
21.44
21.33
20.93
20.65
20.75
21.24
21.91
22.40
22.45
21.95
21.04
20.00
19.08
18.35
17.60
16.46
14.60
12.02
9.15
6.86
6.08
7.50
11.21
16.66
22.91
29.02
34.41
39.06
43.38
47.88
52.88
58.36
63.99
69.23
73.39
75.68
75.25
71.45
64.19
54.08
42.39
30.47
19.14
8.23
-3.17
-16.02
-30.45
-45.33
-58.53
-67.82
-71.74
-70.20
-64.27
-55.67
-46.05
-36.56
-27.82
-20.02
-13.17
-7.19
-1.96
2.66
6.83
10.66
14.19
17.41
20.22
22.46
23.93
24.42
23.79
22.11
19.69
17.02
14.62
12.78
11.39
10.01
8.03
4.92
0.50
-4.96
-10.84
-16.43
-21.17
-24.75
-27.16
-28.51
-29.02
-28.85
-28.16
-27.08
-25.70
-24.09
-22.31
-20.49
-18.86
-17.69
-17.15
-17.17
-17.46
-17.63
-17.48
-17.21
-17.35
-18.45
-20.68
-23.65
-26.56
-28.59
-29.30
-28.84
-27.71
-26.42
-25.13
-23.58
-21.33
-18.05
-13.73
-8.73
-3.58
1.18
5.22
8.38
10.63
12.02
12.61
12.47
11.76
10.69
9.54
8.59
8.09
8.13
8.66
9.42
9.96
9.72
8.23
5.26
1.10
-3.51
-7.52
-9.93
-10.20
-8.49
-5.53
-2.29
0.45
2.37
3.63
4.57
5.51
6.51
7.43
8.06
8.29
8.19
7.93
7.69
7.55
7.48
7.32
6.89
6.11
4.97
3.61
2.16
0.69
-0.85
-2.57
-4.54
-6.61
-8.39
-9.38
-9.16
-7.64
-5.04
-1.86
1.39
4.36
6.96
9.26
11.37
13.27
14.78
15.63
15.60
14.66
12.99
10.88
8.67
6.51
4.42
2.30
0.03
-2.40
-4.91
-7.39
-9.72
-11.82
-13.58
-14.88
-15.58
-15.56
-14.82
-13.49
-11.71
-9.60
-7.22
-4.62
-1.93
0.52
2.33
3.11
2.65
0.92
-1.87
-5.36
-9.06
-12.30
-14.35
-14.58
-12.75
-9.30
-5.23
-1.86
-0.20
-0.54
-2.30
-4.33
-5.51
-5.22
-3.58
-1.21
1.18
3.21
4.88
6.42
8.02
9.63
10.99
11.81
11.97
11.60
10.96
10.34
9.84
9.41
8.91
8.17
7.14
5.87
4.40
2.82
1.11
-0.78
-2.97
-5.52
-8.36
-11.22
-13.61
-14.97
-14.87
-13.20
-10.22
-6.48
-2.59
0.95
3.93
6.38
8.38
9.98
11.08
11.53
11.27
10.46
9.41
8.47
7.82
7.37
6.82
5.82
4.18
1.97
-0.55
-3.09
-5.57
-8.10
-10.91
-14.09
-17.40
-20.28
-22.04
-22.14
-20.51
-17.50
-13.77
-10.03
-6.75
-4.17
-2.28
-0.98
-0.12
0.40
0.68
0.80
0.74
0.42
-0.28
-1.42
-2.96
-4.70
-6.39
-7.85
-9.03
-10.03
-11.04
-12.28
-13.95
-16.09
-18.60
-21.12
-23.09
-23.90
-23.09
-20.58
-16.72
-12.11
-7.38
-2.98
0.99
4.57
7.87
10.85
13.35
15.15
16.20
16.61
16.64
16.58
16.58
16.62
16.53
16.10
15.24
13.98
12.40
10.62
8.60
6.26
3.52
0.45
-2.63
-5.18
-6.59
-6.41
-4.52
-1.17
3.11
7.70
12.03
15.76
18.75
21.05
22.77
24.04
24.89
25.26
25.06
24.23
22.82
21.01
19.05
17.17
15.42
13.73
11.94
9.92
7.69
5.37
3.07
0.85
-1.40
-3.88
-6.77
-10.12
-13.78
-17.35
-20.34
-22.27
-22.87
-22.12
-20.30
-17.84
-15.14
-12.43
-9.82
-7.29
-4.88
-2.79
-1.30
-0.67
-1.05
-2.32
-4.16
-6.15
-7.85
-8.97
-9.42
-9.25
-8.67
-7.93
-7.23
-6.65
-6.19
-5.80
-5.44
-5.20
-5.27
-5.82
-6.87
-8.16
-9.19
-9.34
-8.16
-5.54
-1.79
2.59
7.10
11.50
15.68
19.54
22.75
24.82
25.32
24.21
21.96
19.37
17.17
15.71
14.80
13.92
12.58
10.56
7.98
5.15
2.34
-0.30
-2.72
-4.92
-6.80
-8.22
-9.09
-9.49
-9.73
-10.27
-11.45
-13.34
-15.55
-17.35
-17.96
-16.90
-14.25
-10.58
-6.71
-3.30
-0.55
1.73
3.94
6.36
8.96
11.42
13.34
14.44
14.71
14.36
13.71
13.05
12.51
12.09
11.66
11.10
10.35
9.42
8.41
7.39
6.42
5.48
4.54
3.52
2.37
0.97
-0.83
-3.15
-6.01
-9.19
-12.25
-14.60
-15.77
-15.51
-13.95
-11.54
-8.78
-6.07
-3.58
-1.33
0.79
2.84
4.78
6.46
7.68
8.26
8.12
7.36
6.21
4.98
3.96
3.26
2.82
2.41
1.83
0.95
-0.17
-1.35
-2.36
-3.09
-3.52
-3.80
-4.12
-4.64
-5.42
-6.39
-7.36
-8.14
-8.54
-8.41
-7.68
-6.29
-4.30
-1.83
0.86
3.49
5.88
8.03
10.16
12.60
15.54
18.94
22.52
25.84
28.59
30.63
32.00
32.81
33.17
33.16
32.86
32.37
31.81
31.20
30.49
29.51
28.09
26.15
23.70
20.85
17.67
14.21
10.50
6.55
2.45
-1.76
-6.06
-10.45
-14.83
-18.86
-21.92
-23.23
-22.22
-18.84
-13.63
-7.65
-2.00
2.48
5.58
7.55
8.93
10.20
11.53
12.81
13.77
14.17
13.89
13.00
11.68
10.17
8.65
7.26
6.07
5.02
4.00
2.81
1.25
-0.85
-3.59
-6.98
-10.90
-15.21
-19.75
-24.34
-28.80
-32.95
-36.65
-39.84
-42.50
-44.56
-45.81
-45.83
-44.15
-40.47
-34.96
-28.29
-21.48
-15.53
-11.03
-8.07
-6.32
-5.32
-4.79
-4.64
-4.97
-5.85
-7.21
-8.78
-10.23
-11.32
-12.02
-12.55
-13.22
-14.33
-15.90
-17.71
-19.34
-20.36
-20.55
-20.05
-19.25
-18.62
-18.53
-19.08
-20.11
-21.35
-22.47
-23.19
-23.34
-22.82
-21.64
-19.97
-18.07
-16.18
-14.48
-12.96
-11.47
-9.79
-7.78
-5.48
-3.08
-0.85
0.98
2.29
3.06
3.37
3.37
3.20
3.03
2.97
3.04
3.16
3.14
2.84
2.22
1.39
0.59
0.03
-0.21
-0.27
-0.47
-1.24
-2.96
-5.82
-9.75
-14.38
-19.08
-23.07
-25.59
-26.09
-24.42
-20.84
-15.97
-10.54
-5.28
-0.64
3.25
6.55
9.61
12.77
16.10
19.43
22.33
24.37
25.31
25.18
24.29
22.93
21.25
19.23
16.70
13.61
10.07
6.39
2.93
-0.13
-2.83
-5.43
-8.25
-11.49
-15.12
-18.97
-22.73
-26.15
-28.99
-31.03
-32.06
-31.86
-30.35
-27.62
-24.00
-19.94
-15.79
-11.74
-7.70
-3.49
0.97
5.54
9.82
13.38
15.93
17.43
18.07
18.14
17.85
17.29
16.48
15.49
14.46
13.53
12.79
12.19
11.53
10.61
9.30
7.57
5.47
2.95
-0.09
-3.77
-8.06
-12.69
-17.10
-20.63
-22.68
-22.94
-21.42
-18.43
-14.47
-10.01
-5.44
-0.98
3.33
7.49
11.51
15.27
18.52
20.88
22.02
21.78
20.24
17.73
14.64
11.34
8.07
4.99
2.24
-0.05
-1.76
-2.85
-3.45
-3.84
-4.39
-5.53
-7.58
-10.68
-14.71
-19.18
-23.36
-26.43
-27.75
-27.02
-24.36
-20.22
-15.14
-9.59
-3.89
1.75
7.17
12.19
16.61
20.27
23.08
25.00
26.04
26.26
25.81
24.83
23.48
21.83
19.93
17.85
15.77
13.92
12.55
11.65
10.97
10.04
8.36
5.65
1.93
-2.45
-7.01
-11.17
-14.40
-16.19
-16.12
-14.03
-10.13
-5.01
0.47
5.54
9.72
12.95
15.47
17.49
19.09
20.13
20.47
20.05
19.02
17.64
16.13
14.60
12.95
11.07
8.86
6.38
3.83
1.46
-0.52
-2.02
-3.17
-4.29
-5.73
-7.83
-10.69
-14.08
-17.48
-20.16
-21.46
-20.98
-18.72
-15.08
-10.64
-5.98
-1.48
2.73
6.71
10.53
14.14
17.35
19.89
21.55
22.29
22.23
21.59
20.54
19.24
17.75
16.16
14.61
13.29
12.36
11.85
11.55
11.09
10.03
8.07
5.13
1.41
-2.73
-6.85
-10.54
-13.35
-14.85
-14.70
-12.74
-9.20
-4.65
0.16
4.57
8.23
11.23
13.88
16.50
19.17
21.68
23.63
24.65
24.58
23.46
21.49
18.92
16.01
12.99
10.12
7.65
5.78
4.53
3.77
3.21
2.59
1.72
0.58
-0.73
-2.09
-3.48
-4.92
-6.45
-7.97
-9.21
-9.80
-9.41
-7.93
-5.45
-2.24
1.33
4.96
8.37
11.33
13.63
15.07
15.53
14.99
13.56
11.41
8.78
5.94
3.15
0.58
-1.67
-3.63
-5.47
-7.40
-9.57
-12.03
-14.75
-17.72
-20.98
-24.54
-28.27
-31.82
-34.61
-36.02
-35.64
-33.41
-29.63
-24.84
-19.59
-14.25
-9.04
-4.00
0.83
5.30
9.24
12.47
14.90
16.54
17.49
17.84
17.67
17.05
16.07
14.87
13.62
12.48
11.53
10.75
10.07
9.32
8.34
6.93
4.87
2.04
-1.52
-5.45
-9.14
-11.87
-13.06
-12.48
-10.31
-6.98
-3.05
1.04
5.00
8.70
12.04
14.95
17.30
18.99
19.95
20.16
19.63
18.48
16.84
14.87
12.70
10.40
7.94
5.31
2.58
-0.09
-2.48
-4.46
-6.07
-7.53
-9.15
-11.19
-13.78
-16.81
-19.95
-22.69
-24.43
-24.68
-23.18
-19.99
-15.51
-10.26
-4.77
0.63
5.78
10.59
14.92
18.54
21.16
22.67
23.12
22.80
22.03
21.03
19.85
18.41
16.59
14.38
11.86
9.22
6.64
4.22
1.98
-0.12
-2.16
-4.26
-6.55
-9.18
-12.20
-15.47
-18.64
-21.17
-22.53
-22.35
-20.58
-17.41
-13.23
-8.44
-3.35
1.79
6.80
11.45
15.46
18.57
20.60
21.55
21.56
20.90
19.82
18.51
17.08
15.54
13.86
11.97
9.87
7.57
5.21
2.95
1.00
-0.52
-1.65
-2.55
-3.50
-4.85
-6.81
-9.48
-12.72
-16.16
-19.28
-21.50
-22.30
-21.44
-18.95
-15.19
-10.67
-5.95
-1.44
2.59
6.03
8.82
10.91
12.24
12.85
12.87
12.51
12.04
11.62
11.30
10.99
10.52
9.77
8.71
7.39
5.91
4.38
2.83
1.25
-0.39
-2.16
-4.16
-6.45
-9.06
-11.88
-14.67
-17.08
-18.66
-19.06
-18.09
-15.78
-12.42
-8.43
-4.23
-0.20
3.49
6.74
9.51
11.75
13.35
14.20
14.30
13.75
12.82
11.79
10.83
10.03
9.28
8.47
7.51
6.37
5.06
3.60
1.98
0.18
-1.78
-3.90
-6.17
-8.64
-11.35
-14.30
-17.31
-19.97
-21.81
-22.34
-21.29
-18.68
-14.79
-10.08
-5.05
-0.18
4.19
7.81
10.56
12.48
13.64
14.20
14.31
14.08
13.58
12.83
11.83
10.56
8.96
7.05
4.89
2.63
0.45
-1.48
-3.08
-4.38
-5.48
-6.53
-7.71
-9.19
-11.08
-13.33
-15.62
-17.38
-17.95
-16.75
-13.63
-8.92
-3.34
2.26
7.23
11.28
14.50
17.16
19.52
21.73
23.74
25.41
26.60
27.12
26.78
25.29
22.35
17.83
11.99
5.53
-0.48
-5.05
-7.58
-8.22
-7.70
-7.07
-7.25
-8.66
-11.14
-14.06
-16.63
-18.15
-18.22
-16.77
-14.07
-10.55
-6.70
-2.98
0.28
2.85
4.59
5.51
5.76
5.66
5.55
5.71
6.18
6.73
6.99
6.55
5.19
2.92
0.04
-2.95
-5.54
-7.35
-8.32
-8.66
-8.80
-9.16
-9.96
-11.15
-12.53
-13.78
-14.64
-14.85
-14.23
-12.65
-10.23
-7.36
-4.71
-2.93
-2.41
-2.99
-4.03
-4.80
-4.86
-4.34
-3.88
-4.28
-5.99
-8.96
-12.61
-16.20
-19.20
-21.46
-23.17
-24.59
-25.76
-26.48
-26.31
-24.93
-22.31
-18.82
-15.06
-11.70
-9.22
-7.86
-7.59
-8.17
-9.24
-10.30
-10.79
-10.22
-8.31
-5.18
-1.23
3.00
7.05
10.75
14.10
17.13
19.74
21.69
22.77
23.01
22.71
22.35
22.33
22.72
23.25
23.49
22.95
21.38
18.75
15.24
11.22
7.13
3.38
0.27
-2.10
-3.87
-5.29
-6.57
-7.71
-8.52
-8.63
-7.75
-5.76
-2.85
0.57
3.98
6.93
9.14
10.57
11.34
11.69
11.81
11.81
11.67
11.31
10.63
9.58
8.16
6.37
4.25
1.93
-0.36
-2.31
-3.63
-4.17
-4.04
-3.55
-3.12
-3.18
-4.03
-5.78
-8.34
-11.34
-14.22
-16.23
-16.75
-15.48
-12.61
-8.75
-4.62
-0.77
2.57
5.46
7.95
9.99
11.33
11.71
11.03
9.49
7.47
5.40
3.56
2.10
1.01
0.20
-0.42
-0.96
-1.56
-2.36
-3.43
-4.76
-6.26
-7.77
-9.05
-9.84
-9.84
-8.87
-6.97
-4.48
-1.91
0.26
1.84
3.05
4.44
6.56
9.61
13.18
16.43
18.38
18.37
16.37
12.97
9.00
5.20
1.87
-1.01
-3.63
-5.99
-7.90
-9.06
-9.37
-9.15
-9.03
-9.70
-11.45
-14.06
-16.84
-18.98
-19.88
-19.39
-17.73
-15.33
-12.58
-9.76
-7.08
-4.67
-2.69
-1.29
-0.59
-0.63
-1.30
-2.34
-3.41
-4.12
-4.31
-4.00
-3.48
-3.13
-3.19
-3.65
-4.27
-4.75
-4.86
-4.54
-3.88
-3.00
-2.06
-1.20
-0.56
-0.24
-0.15
-0.02
0.53
1.78
3.71
5.94
7.99
9.50
10.38
10.74
10.72
10.31
9.34
7.62
5.12
2.04
-1.27
-4.39
-7.00
-8.91
-10.08
-10.62
-10.76
-10.79
-10.95
-11.39
-12.08
-12.87
-13.51
-13.77
-13.45
-12.42
-10.66
-8.33
-5.72
-3.16
-0.91
0.95
2.52
3.98
5.42
6.80
7.92
8.59
8.78
8.66
8.57
8.79
9.47
10.52
11.69
12.70
13.36
13.58
13.38
12.79
11.81
10.39
8.53
6.36
4.18
2.32
1.03
0.39
0.25
0.33
0.31
-0.01
-0.71
-1.72
-2.90
-4.05
-5.06
-5.81
-6.28
-6.44
-6.33
-6.00
-5.57
-5.14
-4.82
-4.65
-4.60
-4.57
-4.49
-4.41
-4.50
-4.97
-5.90
-7.12
-8.23
-8.77
-8.43
-7.19
-5.28
-3.09
-0.92
1.08
2.87
4.49
5.93
7.12
8.00
8.53
8.70
8.52
7.98
7.08
5.89
4.51
3.08
1.68
0.35
-0.91
-2.13
-3.25
-4.29
-5.25
-6.23
-7.30
-8.47
-9.58
-10.35
-10.52
-9.93
-8.63
-6.84
-4.88
-3.04
-1.53
-0.40
0.44
1.14
1.88
2.67
3.37
3.72
3.49
2.60
1.23
-0.19
-1.16
-1.28
-0.42
1.17
2.96
4.26
4.47
3.32
0.98
-1.97
-4.75
-6.60
-7.03
-5.97
-3.74
-0.89
2.02
4.58
6.64
8.26
9.60
10.82
11.94
12.84
13.38
13.44
13.06
12.42
11.74
11.32
11.44
12.30
13.91
15.93
17.59
17.88
15.89
11.25
4.40
-3.56
-11.20
-17.38
-21.48
-23.54
-23.94
-23.18
-21.61
-19.38
-16.56
-13.14
-9.19
-4.90
-0.59
3.37
6.58
8.79
9.91
10.04
9.38
8.09
6.30
4.15
1.89
-0.09
-1.41
-1.89
-1.72
-1.46
-1.79
-3.15
-5.46
-8.06
-9.90
-10.03
-7.89
-3.64
2.03
8.13
13.71
18.07
20.85
21.97
21.59
19.99
17.51
14.46
11.11
7.58
3.88
-0.02
-4.12
-8.30
-12.34
-16.01
-19.13
-21.64
-23.58
-25.09
-26.38
-27.69
-29.16
-30.76
-32.25
-33.25
-33.36
-32.27
-29.84
-26.12
-21.37
-16.05
-10.78
-6.24
-2.92
-0.97
-0.06
0.44
1.19
2.51
4.29
6.06
7.31
7.73
7.37
6.49
5.37
4.29
3.43
2.97
3.01
3.55
4.49
5.57
6.59
7.49
8.36
9.41
10.78
12.54
14.68
17.14
19.87
22.82
25.85
28.76
31.29
33.19
34.27
34.29
32.97
29.98
25.07
18.35
10.39
2.17
-5.21
-10.91
-14.64
-16.68
-17.70
-18.42
-19.36
-20.70
-22.36
-24.17
-25.91
-27.35
-28.26
-28.39
-27.56
-25.71
-22.97
-19.63
-16.04
-12.58
-9.53
-7.09
-5.34
-4.19
-3.39
-2.58
-1.45
0.11
1.93
3.59
4.65
4.87
4.36
3.48
2.67
2.25
2.26
2.58
2.96
3.20
3.20
2.86
2.08
0.83
-0.83
-2.66
-4.26
-5.15
-4.98
-3.63
-1.22
1.93
5.42
8.82
11.81
14.12
15.57
16.09
15.69
14.50
12.72
10.62
8.39
6.16
4.00
1.92
-0.06
-1.86
-3.36
-4.48
-5.23
-5.74
-6.21
-6.86
-7.84
-9.16
-10.73
-12.39
-13.93
-15.11
-15.70
-15.47
-14.27
-12.06
-8.97
-5.36
-1.63
1.76
4.55
6.63
8.11
9.15
9.90
10.36
10.49
10.20
9.52
8.60
7.62
6.76
6.04
5.35
4.55
3.49
2.15
0.58
-1.13
-2.94
-4.84
-6.85
-8.95
-10.93
-12.50
-13.30
-13.04
-11.68
-9.36
-6.45
-3.32
-0.29
2.43
4.76
6.64
8.06
8.99
9.41
9.37
8.96
8.32
7.55
6.69
5.70
4.51
3.08
1.48
-0.13
-1.51
-2.50
-3.15
-3.74
-4.68
-6.35
-8.86
-11.90
-14.86
-17.01
-17.74
-16.80
-14.39
-11.00
-7.26
-3.65
-0.42
2.42
4.96
7.26
9.25
10.79
11.74
12.05
11.81
11.14
10.16
8.93
7.53
6.02
4.57
3.32
2.36
1.64
0.98
0.17
-0.99
-2.64
-4.85
-7.54
-10.47
-13.25
-15.32
-16.21
-15.65
-13.68
-10.66
-7.10
-3.51
-0.27
2.44
4.58
6.25
7.57
8.69
9.69
10.54
11.11
11.23
10.78
9.79
8.37
6.70
4.88
2.98
1.04
-0.80
-2.34
-3.40
-3.97
-4.28
-4.77
-5.85
-7.69
-10.08
-12.44
-14.06
-14.37
-13.12
-10.50
-7.00
-3.18
0.49
3.78
6.64
9.14
11.28
13.03
14.31
15.04
15.20
14.85
14.08
13.01
11.76
10.41
9.05
7.69
6.35
5.09
4.03
3.28
2.90
2.72
2.37
1.44
-0.27
-2.58
-4.83
-6.20
-6.01
-4.02
-0.49
4.03
8.98
13.88
18.33
21.87
23.96
24.25
22.75
19.93
16.56
13.41
10.84
8.81
7.02
5.20
3.27
1.39
-0.29
-1.67
-2.82
-3.83
-4.80
-5.78
-6.85
-8.10
-9.56
-11.14
-12.55
-13.41
-13.42
-12.40
-10.37
-7.48
-3.90
0.18
4.52
8.82
12.76
16.05
18.47
19.95
20.49
20.18
19.15
17.57
15.65
13.55
11.42
9.28
7.13
5.03
3.07
1.37
-0.03
-1.31
-2.80
-4.88
-7.83
-11.61
-15.90
-20.17
-23.87
-26.45
-27.48
-26.66
-23.90
-19.43
-13.87
-8.07
-2.85
1.28
4.22
6.20
7.50
8.27
8.49
8.10
7.21
5.98
4.52
2.65
-0.03
-3.77
-8.35
-12.97
-16.54
-18.30
-18.29
-17.38
-16.82
-17.64
-20.10
-23.68
-27.41
-30.28
-31.64
-31.17
-28.85
-24.84
-19.52
-13.48
-7.49
-2.27
1.67
4.29
5.96
7.25
8.72
10.63
12.94
15.34
17.47
19.00
19.80
19.92
19.52
18.78
17.81
16.59
15.09
13.27
11.18
8.88
6.43
3.91
1.49
-0.49
-1.53
-1.16
0.85
4.38
8.95
13.94
18.79
23.18
27.01
30.29
33.02
35.10
36.47
37.08
37.02
36.44
35.47
34.19
32.65
30.86
28.88
26.88
25.07
23.67
22.73
21.97
20.77
18.30
13.92
7.57
-0.07
-7.68
-13.82
-17.44
-18.30
-16.91
-14.24
-11.19
-8.28
-5.65
-3.28
-1.22
0.33
1.08
0.84
-0.32
-2.20
-4.52
-7.09
-9.83
-12.71
-15.68
-18.64
-21.42
-23.82
-25.62
-26.70
-26.99
-26.67
-26.11
-25.76
-25.99
-26.80
-27.86
-28.60
-28.48
-27.23
-24.92
-21.86
-18.38
-14.72
-10.99
-7.26
-3.63
-0.27
2.63
4.90
6.41
7.14
7.17
6.66
5.87
5.04
4.34
3.79
3.21
2.38
1.14
-0.50
-2.36
-4.23
-5.94
-7.42
-8.72
-9.91
-11.00
-11.89
-12.40
-12.18
-10.89
-8.29
-4.43
0.25
4.98
8.94
11.56
12.72
12.74
12.12
11.28
10.36
9.33
8.08
6.68
5.29
4.10
3.12
2.19
1.03
-0.49
-2.29
-4.09
-5.53
-6.37
-6.57
-6.22
-5.45
-4.26
-2.53
-0.05
3.31
7.49
12.21
16.98
21.29
24.82
27.49
29.49
31.08
32.43
33.54
34.22
34.24
33.49
32.08
30.30
28.53
27.06
26.05
25.45
25.10
24.73
24.03
22.62
20.11
16.21
10.80
4.03
-3.65
-11.52
-18.76
-24.68
-28.85
-31.20
-31.98
-31.55
-30.28
-28.40
-25.99
-23.03
-19.48
-15.41
-11.09
-6.92
-3.36
-0.69
1.03
1.99
2.53
2.90
3.18
3.24
2.85
1.91
0.50
-1.12
-2.60
-3.74
-4.53
-5.21
-6.11
-7.51
-9.49
-11.82
-14.02
-15.49
-15.67
-14.33
-11.64
-8.07
-4.22
-0.59
2.48
4.86
6.53
7.48
7.74
7.41
6.66
5.68
4.67
3.71
2.79
1.83
0.78
-0.35
-1.47
-2.52
-3.49
-4.46
-5.57
-6.94
-8.55
-10.23
-11.67
-12.46
-12.28
-10.99
-8.74
-5.90
-2.96
-0.30
1.94
3.81
5.48
7.03
8.38
9.31
9.55
9.01
7.79
6.13
4.32
2.57
1.01
-0.28
-1.25
-1.87
-2.19
-2.34
-2.59
-3.19
-4.34
-6.11
-8.31
-10.58
-12.41
-13.32
-12.99
-11.33
-8.61
-5.31
-1.94
1.11
3.64
5.63
7.09
8.05
8.50
8.45
8.01
7.36
6.71
6.19
5.83
5.54
5.20
4.64
3.80
2.71
1.47
0.17
-1.16
-2.58
-4.17
-5.96
-7.81
-9.46
-10.57
-10.91
-10.45
-9.32
-7.74
-5.90
-3.88
-1.72
0.52
2.70
4.60
6.02
6.83
6.98
6.55
5.67
4.53
3.28
2.09
1.04
0.14
-0.68
-1.54
-2.55
-3.80
-5.26
-6.86
-8.43
-9.72
-10.47
-10.46
-9.55
-7.74
-5.20
-2.20
0.97
4.10
7.08
9.85
12.37
14.47
15.92
16.46
16.01
14.68
12.80
10.81
9.03
7.59
6.36
5.11
3.68
2.05
0.37
-1.18
-2.57
-3.85
-5.19
-6.69
-8.27
-9.69
-10.56
-10.59
-9.66
-7.94
-5.79
-3.66
-1.89
-0.57
0.44
1.40
2.52
3.80
4.98
5.66
5.53
4.47
2.63
0.38
-1.85
-3.72
-5.06
-5.85
-6.16
-6.20
-6.18
-6.38
-7.06
-8.36
-10.22
-12.32
-14.14
-15.11
-14.82
-13.15
-10.31
-6.80
-3.19
-0.05
2.24
3.54
3.97
3.85
3.55
3.41
3.61
4.07
4.55
4.76
4.54
3.94
3.17
2.46
1.98
1.76
1.69
1.54
1.07
0.06
-1.56
-3.65
-5.86
-7.71
-8.73
-8.66
-7.50
-5.57
-3.31
-1.21
0.43
1.49
2.02
2.20
2.19
2.10
1.98
1.77
1.45
1.08
0.85
0.99
1.63
2.73
4.05
5.25
6.11
6.55
6.62
6.39
5.87
5.02
3.87
2.66
1.85
1.95
3.31
5.91
9.31
12.82
15.82
17.92
19.07
19.52
19.54
19.32
18.84
17.98
16.60
14.72
12.46
10.09
7.80
5.70
3.78
1.96
0.16
-1.64
-3.48
-5.41
-7.56
-10.03
-12.80
-15.63
-18.12
-19.80
-20.34
-19.68
-18.01
-15.74
-13.28
-10.90
-8.69
-6.59
-4.50
-2.45
-0.60
0.84
1.61
1.63
0.95
-0.23
-1.64
-3.04
-4.29
-5.31
-6.12
-6.79
-7.45
-8.24
-9.31
-10.76
-12.58
-14.60
-16.54
-18.05
-18.80
-18.57
-17.28
-15.03
-12.06
-8.67
-5.25
-2.07
0.68
2.93
4.73
6.09
6.90
6.97
6.13
4.32
1.79
-1.01
-3.58
-5.65
-7.30
-8.89
-10.85
-13.44
-16.62
-20.12
-23.65
-26.97
-29.94
-32.27
-33.46
-32.79
-29.64
-23.88
-16.06
-7.31
1.08
8.15
13.44
16.98
18.92
19.35
18.30
15.98
12.99
10.27
8.71
8.72
10.07
12.09
14.11
15.83
17.37
18.86
20.13
20.65
19.83
17.57
14.54
11.86
10.50
10.70
11.86
13.06
13.64
13.61
13.52
13.88
14.68
15.16
14.34
11.61
7.35
2.98
0.40
1.17
5.79
13.32
21.72
28.63
32.07
30.80
24.50
13.42
-1.46
-17.96
-32.30
-39.93
-37.27
-24.12
-4.91
12.72
20.95
15.67
-1.44
-24.08
-44.67
-57.87
-62.30
-59.76
-53.10
-44.64
-35.60
-26.77
-18.97
-12.88
-8.29
-3.93
1.87
9.93
19.35
28.03
33.86
35.88
34.76
31.98
28.82
25.73
22.74
19.93
18.05
18.07
20.38
24.55
29.18
32.48
33.23
31.22
27.25
22.70
18.88
16.62
16.00
16.44
16.93
16.35
13.97
9.68
4.11
-1.61
-6.28
-9.15
-10.21
-10.17
-10.07
-10.83
-12.82
-15.78
-19.10
-22.12
-24.46
-26.06
-27.15
-27.96
-28.60
-28.98
-28.90
-28.28
-27.27
-26.19
-25.30
-24.56
-23.54
-21.72
-18.73
-14.73
-10.31
-6.25
-3.08
-0.79
1.14
3.43
6.54
10.40
14.42
17.85
20.18
21.39
21.97
22.53
23.37
24.23
24.27
22.47
18.31
12.20
5.43
-0.37
-4.00
-5.20
-4.72
-3.70
-3.13
-3.32
-4.00
-4.68
-5.02
-5.04
-4.90
-4.65
-4.09
-2.78
-0.35
3.20
7.40
11.39
14.24
15.36
14.65
12.61
9.99
7.58
5.83
4.73
3.95
3.07
1.80
0.14
-1.74
-3.62
-5.44
-7.25
-9.15
-11.05
-12.67
-13.61
-13.58
-12.57
-10.89
-9.04
-7.45
-6.26
-5.31
-4.30
-2.96
-1.24
0.66
2.36
3.48
3.71
3.01
1.51
-0.49
-2.62
-4.55
-6.09
-7.15
-7.84
-8.35
-8.90
-9.65
-10.64
-11.76
-12.78
-13.49
-13.72
-13.45
-12.66
-11.36
-9.49
-7.00
-3.95
-0.62
2.51
4.94
6.35
6.76
6.45
5.88
5.40
5.15
5.05
4.89
4.47
3.70
2.61
1.29
-0.14
-1.61
-3.10
-4.60
-6.07
-7.43
-8.55
-9.35
-9.81
-10.03
-10.14
-10.23
-10.23
-9.95
-9.11
-7.55
-5.31
-2.65
0.12
2.69
4.91
6.75
8.23
9.34
10.01
10.16
9.82
9.09
8.20
7.35
6.63
5.99
5.28
4.35
3.14
1.75
0.34
-0.90
-1.91
-2.80
-3.78
-5.13
-6.99
-9.31
-11.80
-14.03
-15.58
-16.12
-15.55
-14.01
-11.80
-9.27
-6.73
-4.40
-2.39
-0.79
0.39
1.11
1.39
1.28
0.90
0.39
-0.15
-0.65
-1.10
-1.52
-1.91
-2.26
-2.56
-2.87
-3.33
-4.12
-5.37
-7.02
-8.85
-10.60
-12.10
-13.45
-14.90
-16.66
-18.67
-20.49
-21.51
-21.15
-19.28
-16.20
-12.48
-8.69
-5.10
-1.73
1.55
4.76
7.75
10.28
12.22
13.59
14.58
15.38
16.10
16.70
17.06
17.07
16.70
16.05
15.25
14.43
13.62
12.77
11.64
9.88
7.10
3.02
-2.34
-8.54
-14.80
-20.13
-23.73
-25.14
-24.42
-21.99
-18.46
-14.37
-10.07
-5.67
-1.18
3.38
7.88
12.09
15.79
18.82
21.14
22.81
23.97
24.70
25.05
25.11
24.93
24.64
24.40
24.33
24.45
24.67
24.81
24.65
24.06
23.04
21.71
20.29
18.93
17.70
16.46
15.00
13.10
10.68
7.87
4.99
2.47
0.64
-0.34
-0.51
-0.04
0.89
2.10
3.43
4.68
5.60
5.95
5.63
4.68
3.28
1.65
-0.08
-1.86
-3.67
-5.43
-6.99
-8.27
-9.31
-10.32
-11.57
-13.19
-15.04
-16.77
-17.96
-18.41
-18.20
-17.70
-17.39
-17.68
-18.78
-20.66
-23.10
-25.70
-27.97
-29.37
-29.47
-28.05
-25.25
-21.60
-17.88
-14.76
-12.51
-10.78
-8.71
-5.32
-0.02
7.12
15.34
23.53
30.70
36.37
40.59
43.80
46.42
48.63
50.19
50.49
48.77
44.43
37.34
28.03
17.67
7.77
-0.26
-5.49
-7.79
-7.65
-6.07
-4.22
-3.25
-4.08
-7.28
-12.84
-20.03
-27.50
-33.65
-37.19
-37.59
-35.21
-31.06
-26.32
-21.92
-18.34
-15.62
-13.60
-12.06
-10.74
-9.38
-7.75
-5.71
-3.31
-0.92
0.90
1.60
0.87
-1.16
-3.96
-6.75
-8.83
-9.86
-9.90
-9.47
-9.20
-9.69
-11.22
-13.74
-16.88
-20.02
-22.45
-23.56
-22.94
-20.56
-16.72
-11.94
-6.73
-1.46
3.69
8.60
13.06
16.71
19.20
20.31
20.19
19.30
18.25
17.53
17.29
17.47
17.89
18.33
18.55
18.21
16.96
14.61
11.40
8.02
5.29
3.64
2.76
1.64
-0.79
-5.03
-10.61
-16.26
-20.55
-22.62
-22.48
-20.77
-18.24
-15.27
-11.86
-7.87
-3.34
1.36
5.64
9.02
11.35
12.83
13.84
14.73
15.61
16.38
16.82
16.70
15.96
14.68
13.05
11.31
9.65
8.21
7.01
5.95
4.82
3.31
1.06
-2.28
-6.84
-12.39
-18.30
-23.68
-27.57
-29.34
-28.83
-26.37
-22.61
-18.14
-13.34
-8.31
-3.03
2.44
7.77
12.46
16.01
18.15
18.97
18.86
18.33
17.78
17.38
17.02
16.45
15.45
13.94
12.02
9.92
7.88
6.05
4.42
2.87
1.18
-0.84
-3.35
-6.34
-9.69
-13.11
-16.23
-18.63
-19.98
-20.05
-18.78
-16.24
-12.64
-8.34
-3.77
0.58
4.27
7.04
8.82
9.78
10.21
10.33
10.26
9.97
9.32
8.25
6.78
5.05
3.26
1.57
0.09
-1.23
-2.54
-4.02
-5.85
-8.12
-10.79
-13.69
-16.58
-19.12
-20.90
-21.49
-20.56
-17.97
-13.89
-8.78
-3.24
2.11
6.89
10.95
14.29
16.96
18.93
20.17
20.68
20.60
20.19
19.70
19.34
19.15
19.04
18.88
18.44
17.51
15.89
13.48
10.28
6.36
1.86
-3.11
-8.39
-13.69
-18.55
-22.28
-24.19
-23.86
-21.33
-17.16
-12.23
-7.43
-3.34
-0.17
2.23
4.08
5.54
6.61
7.17
7.07
6.26
4.81
2.88
0.64
-1.74
-4.19
-6.59
-8.81
-10.62
-11.84
-12.41
-12.55
-12.73
-13.55
-15.46
-18.56
-22.43
-26.19
-28.82
-29.47
-27.75
-23.87
-18.42
-12.19
-5.88
0.01
5.21
9.59
13.03
15.50
17.01
17.70
17.77
17.42
16.83
16.03
14.94
13.46
11.56
9.36
7.12
5.15
3.62
2.49
1.49
0.23
-1.70
-4.56
-8.37
-12.87
-17.53
-21.59
-24.21
-24.67
-22.60
-18.15
-11.95
-4.85
2.32
9.01
14.98
20.14
24.44
27.75
29.90
30.87
30.79
29.96
28.65
27.02
25.07
22.69
19.83
16.58
13.17
9.88
6.94
4.40
2.10
-0.23
-2.95
-6.38
-10.68
-15.76
-21.20
-26.24
-29.95
-31.51
-30.48
-26.94
-21.40
-14.62
-7.34
-0.07
6.90
13.41
19.26
24.17
27.85
30.12
31.03
30.85
30.00
28.84
27.63
26.39
25.01
23.32
21.14
18.48
15.47
12.37
9.44
6.91
4.83
3.11
1.49
-0.37
-2.79
-5.98
-9.90
-14.16
-18.10
-20.88
-21.78
-20.44
-16.98
-11.98
-6.22
-0.41
4.98
9.78
13.94
17.42
20.11
21.88
22.68
22.61
21.93
20.91
19.79
18.64
17.42
16.05
14.48
12.72
10.84
8.96
7.17
5.50
3.91
2.29
0.48
-1.67
-4.31
-7.58
-11.52
-16.06
-20.91
-25.57
-29.34
-31.52
-31.60
-29.38
-25.14
-19.46
-13.15
-6.89
-1.12
4.04
8.68
12.91
16.72
19.89
22.14
23.20
23.00
21.78
19.97
18.06
16.41
15.17
14.22
13.28
11.97
9.89
6.76
2.40
-3.10
-9.39
-15.77
-21.43
-25.67
-28.26
-29.54
-30.25
-31.15
-32.53
-34.07
-34.93
-34.19
-31.30
-26.25
-19.54
-11.83
-3.74
4.35
12.20
19.65
26.50
32.60
37.90
42.44
46.33
49.59
52.14
53.82
54.40
53.72
51.75
48.65
44.73
40.40
36.10
32.15
28.73
25.82
23.26
20.85
18.42
15.86
13.15
10.31
7.38
4.34
1.14
-2.34
-6.26
-10.79
-15.91
-21.30
-26.29
-29.98
-31.52
-30.48
-27.08
-22.15
-16.84
-12.23
-8.94
-7.03
-6.13
-5.75
-5.53
-5.43
-5.64
-6.42
-7.88
-9.89
-12.13
-14.21
-15.95
-17.38
-18.70
-20.11
-21.67
-23.21
-24.53
-25.52
-26.33
-27.29
-28.71
-30.74
-33.19
-35.67
-37.73
-39.02
-39.38
-38.75
-37.17
-34.60
-31.01
-26.39
-20.82
-14.50
-7.73
-0.80
6.04
12.65
18.88
24.61
29.61
33.58
36.24
37.55
37.73
37.35
37.17
37.92
40.08
43.73
48.55
53.94
59.21
63.68
66.89
68.59
68.82
67.79
65.80
63.10
59.81
55.89
51.21
45.75
39.65
33.28
27.17
21.87
17.83
15.28
14.23
14.40
15.23
15.89
15.55
13.60
10.05
5.56
1.28
-1.60
-2.40
-1.15
1.41
4.36
6.98
8.99
10.46
11.47
11.90
11.42
9.76
7.03
3.78
0.78
-1.34
-2.40
-2.77
-3.06
-3.80
-5.17
-6.93
-8.63
-9.92
-10.70
-11.06
-11.07
-10.50
-8.84
-5.56
-0.49
5.86
12.35
17.63
20.64
21.01
19.11
15.74
11.66
7.31
2.82
-1.81
-6.45
-10.78
-14.48
-17.37
-19.51
-21.24
-22.94
-24.89
-27.22
-29.92
-32.92
-36.29
-40.17
-44.75
-50.15
-56.23
-62.61
-68.67
-73.77
-77.31
-78.96
-78.67
-76.64
-73.25
-68.92
-64.02
-58.89
-53.80
-49.00
-44.74
-41.28
-38.85
-37.58
-37.50
-38.53
-40.56
-43.41
-46.84
-50.49
-53.81
-56.19
-57.12
-56.37
-54.17
-51.08
-47.84
-45.06
-43.01
-41.65
-40.69
-39.77
-38.70
-37.42
-36.11
-35.07
-34.61
-34.98
-36.22
-38.13
-40.20
-41.68
-41.68
-39.48
-34.65
-27.28
-17.96
-7.61
2.74
12.28
20.57
27.56
33.46
38.53
42.88
46.42
48.91
50.19
50.29
49.48
48.20
46.82
45.44
43.84
41.58
38.22
33.58
27.85
21.46
14.84
8.29
1.77
-4.93
-12.06
-19.66
-27.47
-34.94
-41.31
-45.87
-48.11
-47.86
-45.27
-40.78
-34.94
-28.34
-21.50
-14.87
-8.80
-3.53
0.84
4.33
7.10
9.32
11.12
12.52
13.47
13.87
13.65
12.77
11.25
9.18
6.74
4.22
1.90
-0.06
-1.71
-3.34
-5.37
-8.17
-11.91
-16.49
-21.64
-26.98
-32.08
-36.54
-39.98
-42.07
-42.60
-41.58
-39.17
-35.58
-30.97
-25.35
-18.71
-11.18
-3.12
4.88
12.18
18.31
23.15
26.88
29.84
32.32
34.43
36.08
37.06
37.19
36.40
34.79
32.51
29.74
26.61
23.08
19.03
14.29
8.67
2.15
-5.10
-12.63
-19.76
-25.62
-29.41
-30.52
-28.75
-24.31
-17.78
-9.92
-1.47
6.93
14.79
21.68
27.21
31.14
33.40
34.14
33.71
32.50
30.78
28.63
26.00
22.86
19.33
15.72
12.42
9.73
7.71
6.15
4.66
2.78
0.14
-3.49
-8.14
-13.58
-19.30
-24.59
-28.58
-30.52
-29.94
-26.77
-21.40
-14.50
-6.85
0.86
8.13
14.70
20.49
25.46
29.57
32.75
34.88
35.86
35.65
34.30
31.99
28.99
25.61
22.14
18.79
15.66
12.72
9.90
7.04
3.94
0.33
-4.08
-9.43
-15.63
-22.13
-28.01
-32.20
-33.81
-32.45
-28.36
-22.25
-14.98
-7.27
0.45
7.95
15.08
21.67
27.50
32.36
36.16
38.89
40.51
41.00
40.33
38.58
35.99
32.93
29.85
27.08
24.73
22.68
20.62
18.21
15.10
11.04
5.87
-0.33
-7.23
-14.18
-20.22
-24.36
-25.80
-24.20
-19.77
-13.23
-5.48
2.57
10.31
17.37
23.59
28.88
33.15
36.28
38.20
38.90
38.46
36.98
34.62
31.51
27.82
23.73
19.49
15.37
11.59
8.22
5.16
2.08
-1.43
-5.74
-10.97
-16.86
-22.71
-27.53
-30.30
-30.26
-27.20
-21.46
-13.82
-5.23
3.44
11.54
18.67
24.57
29.10
32.19
33.91
34.43
34.00
32.83
31.02
28.58
25.52
21.95
18.12
14.34
10.84
7.71
4.83
1.94
-1.31
-5.18
-9.82
-15.02
-20.24
-24.63
-27.25
-27.35
-24.62
-19.34
-12.32
-4.57
2.93
9.55
15.05
19.45
22.86
25.35
26.86
27.27
26.55
24.78
22.18
19.06
15.72
12.39
9.23
6.34
3.72
1.33
-1.01
-3.51
-6.48
-10.12
-14.53
-19.53
-24.66
-29.13
-32.03
-32.49
-30.05
-24.83
-17.55
-9.30
-1.18
6.02
11.98
16.74
20.49
23.39
25.44
26.54
26.57
25.49
23.36
20.35
16.68
12.65
8.55
4.64
1.10
-2.02
-4.80
-7.48
-10.35
-13.71
-17.76
-22.49
-27.53
-32.13
-35.34
-36.26
-34.36
-29.65
-22.74
-14.51
-5.91
2.29
9.65
15.99
21.24
25.38
28.38
30.28
31.14
31.08
30.20
28.55
26.16
23.05
19.36
15.33
11.31
7.63
4.47
1.81
-0.63
-3.27
-6.54
-10.69
-15.71
-21.24
-26.60
-30.90
-33.26
-33.04
-30.07
-24.66
-17.59
-9.80
-2.15
4.82
10.94
16.25
20.82
24.59
27.36
28.87
28.98
27.76
25.49
22.53
19.23
15.80
12.39
9.09
6.03
3.31
0.98
-1.06
-3.06
-5.41
-8.44
-12.37
-17.09
-22.17
-26.83
-30.09
-31.09
-29.31
-24.85
-18.34
-10.75
-3.02
4.19
10.64
16.35
21.39
25.68
29.01
31.14
31.98
31.65
30.41
28.53
26.21
23.51
20.48
17.18
13.77
10.45
7.42
4.73
2.31
-0.06
-2.68
-5.90
-9.94
-14.75
-19.92
-24.71
-28.16
-29.45
-28.14
-24.38
-18.85
-12.52
-6.26
-0.66
4.11
8.17
11.66
14.64
17.00
18.54
19.12
18.74
17.55
15.78
13.58
11.00
8.01
4.64
1.06
-2.40
-5.34
-7.55
-9.08
-10.36
-12.00
-14.52
-18.09
-22.32
-26.39
-29.21
-29.88
-27.91
-23.44
-17.15
-9.95
-2.71
3.94
9.75
14.64
18.63
21.63
23.57
24.38
24.18
23.19
21.70
19.90
17.87
15.61
13.09
10.38
7.60
4.92
2.45
0.16
-2.09
-4.51
-7.33
-10.71
-14.64
-18.85
-22.81
-25.77
-26.99
-25.98
-22.76
-17.83
-12.07
-6.36
-1.35
2.73
5.93
8.43
10.38
11.81
12.69
12.99
12.71
11.91
10.64
8.98
6.96
4.68
2.24
-0.21
-2.58
-4.79
-6.83
-8.74
-10.61
-12.61
-14.95
-17.78
-21.07
-24.51
-27.49
-29.24
-29.14
-26.91
-22.78
-17.40
-11.56
-5.98
-1.09
2.98
6.30
8.96
10.98
12.28
12.81
12.57
11.64
10.23
8.50
6.63
4.72
2.87
1.13
-0.42
-1.75
-2.88
-3.91
-5.02
-6.45
-8.45
-11.16
-14.58
-18.47
-22.34
-25.54
-27.38
-27.36
-25.31
-21.47
-16.40
-10.79
-5.26
-0.24
4.07
7.65
10.49
12.58
13.92
14.57
14.65
14.34
13.81
13.09
12.12
10.78
9.00
6.85
4.53
2.31
0.43
-1.03
-2.14
-3.11
-4.23
-5.78
-7.99
-10.95
-14.58
-18.52
-22.19
-24.85
-25.84
-24.75
-21.64
-16.98
-11.52
-6.02
-1.05
3.19
6.77
9.82
12.42
14.47
15.79
16.25
15.87
14.88
13.60
12.26
10.89
9.39
7.54
5.25
2.62
-0.10
-2.56
-4.57
-6.13
-7.48
-8.98
-10.98
-13.68
-17.05
-20.76
-24.28
-26.91
-27.98
-27.11
-24.29
-19.95
-14.79
-9.49
-4.51
0.01
4.14
7.97
11.43
14.23
16.06
16.71
16.30
15.20
13.88
12.66
11.64
10.68
9.53
8.04
6.19
4.19
2.26
0.57
-0.88
-2.25
-3.77
-5.63
-7.92
-10.60
-13.63
-16.92
-20.31
-23.43
-25.69
-26.44
-25.22
-22.03
-17.40
-12.19
-7.26
-3.10
0.28
3.15
5.82
8.35
10.52
12.01
12.66
12.52
11.91
11.17
10.52
9.93
9.22
8.14
6.56
4.61
2.61
0.91
-0.26
-0.93
-1.41
-2.11
-3.40
-5.49
-8.34
-11.75
-15.41
-18.89
-21.70
-23.35
-23.39
-21.67
-18.36
-13.96
-9.12
-4.43
-0.23
3.42
6.61
9.48
12.05
14.21
15.81
16.71
16.88
16.38
15.39
14.12
12.75
11.35
9.89
8.27
6.44
4.48
2.57
0.92
-0.35
-1.35
-2.37
-3.76
-5.78
-8.53
-11.85
-15.40
-18.70
-21.20
-22.36
-21.85
-19.61
-15.95
-11.41
-6.64
-2.12
1.91
5.43
8.49
11.03
12.91
13.96
14.11
13.49
12.42
11.23
10.18
9.34
8.61
7.81
6.78
5.51
4.06
2.61
1.31
0.24
-0.61
-1.37
-2.21
-3.32
-4.87
-6.99
-9.69
-12.79
-15.95
-18.58
-20.03
-19.79
-17.69
-13.94
-9.11
-3.86
1.27
5.93
10.01
13.45
16.17
18.00
18.80
18.54
17.41
15.76
13.96
12.27
10.81
9.52
8.30
7.01
5.63
4.12
2.50
0.75
-1.14
-3.20
-5.48
-7.99
-10.77
-13.83
-17.07
-20.29
-23.17
-25.28
-26.21
-25.66
-23.54
-20.03
-15.49
-10.41
-5.27
-0.42
3.91
7.61
10.56
12.66
13.81
14.00
13.37
12.21
10.84
9.52
8.33
7.21
6.00
4.59
2.99
1.28
-0.39
-1.95
-3.44
-4.95
-6.58
-8.46
-10.66
-13.20
-16.00
-18.81
-21.21
-22.69
-22.75
-21.14
-17.91
-13.45
-8.37
-3.25
1.46
5.56
9.08
12.11
14.69
16.78
18.25
18.99
19.00
18.40
17.39
16.15
14.72
13.07
11.14
8.92
6.57
4.31
2.31
0.66
-0.78
-2.23
-3.92
-5.97
-8.41
-11.17
-14.16
-17.19
-20.00
-22.17
-23.25
-22.87
-20.91
-17.59
-13.36
-8.78
-4.33
-0.32
3.11
5.89
8.01
9.41
10.07
10.08
9.60
8.86
8.05
7.27
6.46
5.52
4.37
3.04
1.64
0.34
-0.74
-1.63
-2.46
-3.45
-4.86
-6.85
-9.54
-12.87
-16.60
-20.28
-23.30
-25.00
-24.89
-22.81
-18.97
-13.89
-8.21
-2.51
2.87
7.75
12.17
16.22
19.99
23.42
26.41
28.74
30.26
30.87
30.60
29.53
27.81
25.64
23.32
21.22
19.80
19.42
20.21
21.91
23.91
25.43
25.76
24.52
21.74
17.82
13.34
8.93
5.09
2.08
0.03
-1.09
-1.33
-0.74
0.62
2.61
5.02
7.47
9.55
10.84
11.01
9.97
7.82
4.86
1.46
-1.96
-5.11
-7.82
-10.02
-11.75
-13.11
-14.19
-15.17
-16.19
-17.42
-19.03
-21.11
-23.70
-26.72
-29.98
-33.22
-36.15
-38.47
-39.92
-40.31
-39.45
-37.22
-33.63
-28.79
-23.01
-16.73
-10.46
-4.64
0.46
4.73
8.19
10.88
12.80
13.91
14.20
13.74
12.68
11.30
9.84
8.52
7.44
6.59
5.88
5.18
4.43
3.62
2.79
1.96
1.09
0.06
-1.30
-3.19
-5.71
-8.76
-12.05
-15.08
-17.28
-18.16
-17.45
-15.18
-11.70
-7.48
-3.04
1.25
5.19
8.71
11.80
14.37
16.25
17.25
17.23
16.22
14.42
12.19
9.86
7.70
5.79
4.13
2.65
1.28
-0.02
-1.31
-2.65
-4.13
-5.80
-7.67
-9.65
-11.73
-13.90
-16.21
-18.66
-21.12
-23.25
-24.57
-24.63
-23.17
-20.25
-16.23
-11.64
-6.95
-2.49
1.66
5.50
9.06
12.19
14.63
16.06
16.36
15.63
14.26
12.73
11.43
10.46
9.69
8.84
7.65
6.08
4.25
2.41
0.74
-0.70
-2.00
-3.37
-5.01
-7.07
-9.61
-12.57
-15.75
-18.84
-21.42
-23.05
-23.35
-22.10
-19.35
-15.39
-10.69
-5.75
-0.99
3.37
7.28
10.77
13.83
16.33
18.11
18.99
19.00
18.34
17.31
16.21
15.18
14.18
13.03
11.60
9.88
8.04
6.31
4.85
3.67
2.60
1.43
-0.05
-1.99
-4.43
-7.39
-10.78
-14.39
-17.82
-20.47
-21.71
-21.09
-18.52
-14.35
-9.24
-3.91
1.09
5.48
9.27
12.52
15.27
17.40
18.74
19.18
18.78
17.79
16.54
15.32
14.27
13.28
12.12
10.61
8.64
6.36
3.99
1.77
-0.20
-1.98
-3.74
-5.66
-7.85
-10.35
-13.08
-15.87
-18.42
-20.30
-21.03
-20.23
-17.79
-13.92
-9.16
-4.10
0.76
5.20
9.17
12.70
15.71
18.02
19.43
19.85
19.42
18.42
17.11
15.66
14.07
12.24
10.13
7.84
5.60
3.68
2.23
1.25
0.58
-0.06
-0.93
-2.29
-4.33
-7.17
-10.70
-14.61
-18.33
-21.14
-22.45
-21.99
-19.87
-16.53
-12.51
-8.25
-4.02
0.02
3.69
6.77
8.98
10.19
10.48
10.19
9.75
9.53
9.67
10.08
10.44
10.46
9.94
8.88
7.46
5.93
4.54
3.39
2.45
1.55
0.49
-0.90
-2.72
-4.96
-7.55
-10.22
-12.58
-14.15
-14.45
-13.17
-10.33
-6.26
-1.49
3.39
7.93
11.89
15.19
17.86
19.92
21.36
22.19
22.44
22.23
21.71
21.05
20.39
19.78
19.18
18.51
17.68
16.68
15.58
14.50
13.53
12.57
11.36
9.45
6.45
2.16
-3.20
-9.04
-14.50
-18.72
-21.10
-21.46
-20.04
-17.35
-13.92
-10.25
-6.64
-3.27
-0.29
2.17
3.98
5.11
5.60
5.61
5.27
4.61
3.58
2.07
0.05
-2.32
-4.76
-6.90
-8.47
-9.40
-9.79
-9.89
-9.95
-10.25
-11.03
-12.48
-14.65
-17.33
-19.95
-21.77
-22.08
-20.53
-17.26
-12.85
-8.10
-3.64
0.23
3.56
6.61
9.57
12.41
14.92
16.77
17.76
17.82
17.08
15.76
14.10
12.29
10.44
8.58
6.72
4.86
3.04
1.28
-0.43
-2.14
-3.95
-5.98
-8.32
-10.95
-13.79
-16.64
-19.21
-21.18
-22.20
-21.96
-20.33
-17.33
-13.24
-8.48
-3.55
1.17
5.46
9.26
12.58
15.40
17.62
19.14
19.87
19.92
19.47
18.74
17.85
16.75
15.29
13.33
10.92
8.30
5.85
3.88
2.49
1.51
0.57
-0.78
-2.85
-5.76
-9.33
-13.12
-16.54
-18.94
-19.84
-19.00
-16.49
-12.71
-8.24
-3.64
0.58
4.12
6.80
8.58
9.46
9.56
9.07
8.25
7.40
6.73
6.31
6.02
5.67
5.07
4.14
2.95
1.61
0.32
-0.80
-1.71
-2.46
-3.17
-4.07
-5.37
-7.20
-9.44
-11.72
-13.49
-14.20
-13.52
-11.44
-8.29
-4.58
-0.85
2.52
5.27
7.34
8.75
9.58
9.94
9.92
9.58
8.94
8.00
6.77
5.30
3.65
1.89
0.06
-1.80
-3.61
-5.24
-6.54
-7.44
-8.03
-8.58
-9.41
-10.81
-12.85
-15.36
-17.94
-20.06
-21.14
-20.76
-18.78
-15.36
-10.96
-6.19
-1.60
2.46
5.86
8.66
10.92
12.64
13.81
14.44
14.63
14.55
14.32
13.91
13.23
12.11
10.50
8.47
6.25
4.11
2.24
0.71
-0.55
-1.72
-3.08
-4.92
-7.48
-10.81
-14.67
-18.49
-21.57
-23.27
-23.24
-21.54
-18.58
-14.93
-11.13
-7.54
-4.34
-1.55
0.84
2.87
4.54
5.82
6.70
7.23
7.52
7.68
7.78
7.79
7.54
6.86
5.66
4.04
2.25
0.64
-0.58
-1.35
-1.81
-2.22
-2.86
-3.97
-5.67
-7.91
-10.40
-12.64
-13.94
-13.73
-11.71
-8.04
-3.28
1.83
6.59
10.55
13.57
15.71
17.08
17.79
17.96
17.69
17.12
16.38
15.55
14.62
13.53
12.21
10.68
9.04
7.49
6.25
5.46
5.18
5.26
5.43
5.34
4.65
3.19
0.98
-1.69
-4.34
-6.40
-7.36
-6.88
-4.85
-1.49
2.81
7.52
12.13
16.25
19.65
22.20
23.78
24.26
23.50
21.48
18.34
14.42
10.20
6.13
2.53
-0.46
-2.92
-4.96
-6.69
-8.10
-9.14
-9.70
-9.77
-9.51
-9.21
-9.23
-9.92
-11.40
-13.54
-15.88
-17.76
-18.57
-17.90
-15.73
-12.37
-8.38
-4.27
-0.43
3.03
6.08
8.76
10.97
12.55
13.30
13.12
12.11
10.49
8.57
6.60
4.72
2.96
1.30
-0.29
-1.80
-3.20
-4.49
-5.79
-7.28
-9.15
-11.53
-14.40
-17.58
-20.75
-23.51
-25.38
-25.95
-24.96
-22.38
-18.48
-13.78
-8.86
-4.24
-0.19
3.25
6.15
8.51
10.27
11.30
11.52
11.03
10.09
9.00
8.03
7.26
6.63
5.99
5.23
4.32
3.31
2.25
1.13
-0.18
-1.83
-4.00
-6.68
-9.72
-12.70
-15.09
-16.40
-16.28
-14.72
-11.96
-8.42
-4.56
-0.77
2.68
5.64
8.02
9.76
10.88
11.42
11.46
11.09
10.35
9.26
7.86
6.22
4.50
2.88
1.47
0.28
-0.81
-2.02
-3.56
-5.53
-7.93
-10.61
-13.32
-15.77
-17.64
-18.62
-18.47
-17.03
-14.31
-10.49
-5.96
-1.16
3.48
7.64
11.13
13.88
15.89
17.16
17.71
17.62
17.04
16.15
15.08
13.89
12.56
11.01
9.27
7.44
5.72
4.32
3.31
2.58
1.91
1.00
-0.33
-2.23
-4.72
-7.71
-10.95
-13.96
-16.07
-16.60
-15.17
-11.86
-7.24
-2.20
2.46
6.24
9.08
11.22
12.92
14.33
15.43
16.11
16.29
15.97
15.19
14.00
12.43
10.54
8.43
6.27
4.27
2.59
1.35
0.57
0.13
-0.20
-0.73
-1.79
-3.57
-6.06
-9.03
-11.99
-14.39
-15.71
-15.64
-14.14
-11.40
-7.82
-3.84
0.13
3.79
6.94
9.48
11.34
12.46
12.83
12.49
11.59
10.31
8.84
7.30
5.70
4.07
2.43
0.93
-0.29
-1.10
-1.50
-1.64
-1.80
-2.26
-3.25
-4.89
-7.18
-9.93
-12.83
-15.41
-17.14
-17.54
-16.40
-13.77
-10.05
-5.77
-1.54
2.19
5.15
7.32
8.79
9.72
10.27
10.53
10.55
10.37
10.06
9.69
9.29
8.82
8.13
7.07
5.58
3.78
1.95
0.41
-0.68
-1.41
-2.10
-3.18
-5.04
-7.78
-11.25
-14.92
-18.13
-20.18
-20.63
-19.37
-16.73
-13.36
-9.96
-7.10
-5.00
-3.55
-2.47
-1.47
-0.39
0.81
2.02
3.12
4.04
4.70
5.08
5.11
4.76
3.98
2.83
1.44
0.04
-1.10
-1.82
-2.11
-2.17
-2.36
-3.06
-4.53
-6.72
-9.30
-11.65
-13.11
-13.21
-11.83
-9.21
-5.88
-2.36
0.98
4.06
7.01
9.96
12.90
15.55
17.53
18.50
18.39
17.37
15.87
14.30
12.92
11.75
10.68
9.50
8.13
6.64
5.20
4.00
3.13
2.56
2.15
1.77
1.33
0.82
0.31
-0.13
-0.36
-0.28
0.24
1.29
2.88
4.88
7.06
9.10
10.71
11.68
12.01
11.74
11.02
9.95
8.57
6.92
5.03
3.02
1.06
-0.65
-1.96
-2.82
-3.33
-3.65
-3.97
-4.43
-5.09
-5.91
-6.84
-7.81
-8.81
-9.84
-10.95
-12.13
-13.34
-14.40
-15.06
-15.03
-14.13
-12.34
-9.82
-6.90
-3.97
-1.36
0.75
2.30
3.32
3.84
3.89
3.49
2.73
1.79
0.92
0.33
0.09
0.12
0.22
0.22
0.01
-0.38
-0.84
-1.27
-1.64
-2.00
-2.52
-3.38
-4.73
-6.60
-8.83
-11.07
-12.83
-13.64
-13.23
-11.62
-9.11
-6.18
-3.29
-0.76
1.28
2.87
4.07
4.94
5.45
5.54
5.20
4.48
3.55
2.65
1.95
1.54
1.32
1.14
0.88
0.52
0.15
-0.16
-0.44
-0.82
-1.49
-2.60
-4.15
-6.08
-8.21
-10.38
-12.37
-13.89
-14.62
-14.32
-12.91
-10.60
-7.75
-4.80
-2.08
0.29
2.37
4.28
6.10
7.79
9.18
10.05
10.20
9.58
8.35
6.80
5.29
4.07
3.20
2.59
2.11
1.70
1.42
1.38
1.56
1.85
2.01
1.81
1.12
-0.08
-1.76
-3.88
-6.39
-9.12
-11.73
-13.70
-14.51
-13.86
-11.78
-8.67
-5.03
-1.39
1.92
4.74
7.03
8.78
9.99
10.68
10.94
10.94
10.90
10.99
11.29
11.74
12.24
12.63
12.71
12.35
11.40
9.80
7.58
4.90
2.01
-0.88
-3.65
-6.34
-9.12
-12.17
-15.59
-19.23
-22.76
-25.74
-27.75
-28.52
-28.05
-26.52
-24.22
-21.43
-18.40
-15.23
-12.05
-8.97
-6.14
-3.73
-1.83
-0.45
0.50
1.17
1.70
2.21
2.69
3.13
3.47
3.73
3.93
4.15
4.53
5.24
6.42
8.10
10.09
11.97
13.19
13.24
11.98
9.73
7.31
5.74
5.86
7.94
11.66
16.14
20.43
23.85
26.21
27.73
28.91
30.18
31.70
33.37
34.95
36.28
37.38
38.48
39.81
41.34
42.70
43.20
42.11
39.05
34.24
28.45
22.74
17.94
14.34
11.60
8.97
5.67
1.25
-4.30
-10.63
-17.23
-23.61
-29.32
-33.96
-37.24
-38.97
-39.29
-38.63
-37.75
-37.44
-38.30
-40.55
-43.96
-48.05
-52.28
-56.22
-59.53
-61.96
-63.26
-63.25
-61.87
-59.26
-55.76
-51.79
-47.67
-43.61
-39.69
-35.92
-32.39
-29.23
-26.67
-24.90
-24.05
-24.10
-24.85
-25.82
-26.38
-25.87
-23.93
-20.55
-16.19
-11.51
-7.13
-3.46
-0.62
1.46
2.88
3.78
4.27
4.53
4.78
5.21
5.85
6.61
7.26
7.57
7.45
6.95
6.26
5.61
5.15
4.95
4.91
4.85
4.55
3.81
2.51
0.70
-1.41
-3.41
-4.79
-5.06
-3.89
-1.23
2.62
7.12
11.65
15.67
18.83
20.99
22.08
22.10
21.10
19.29
17.04
14.91
13.41
12.86
13.22
14.16
15.15
15.75
15.75
15.11
13.97
12.41
10.46
8.10
5.27
2.06
-1.29
-4.37
-6.70
-7.84
-7.56
-5.89
-3.13
0.22
3.68
6.88
9.60
11.81
13.50
14.71
15.41
15.63
15.47
15.07
14.56
14.00
13.27
12.23
10.73
8.74
6.44
4.10
2.03
0.44
-0.62
-1.29
-1.80
-2.34
-2.93
-3.31
-3.11
-1.86
0.74
4.74
9.93
15.92
22.24
28.45
34.12
38.85
42.26
44.04
44.06
42.35
39.17
34.94
30.15
25.30
20.81
16.98
13.86
11.26
8.85
6.34
3.60
0.76
-1.91
-4.09
-5.55
-6.11
-5.56
-3.63
-0.10
4.99
11.11
17.31
22.43
25.53
26.28
25.02
22.57
19.82
17.40
15.44
13.74
11.96
9.85
7.35
4.59
1.74
-1.10
-3.95
-6.95
-10.22
-13.79
-17.58
-21.38
-24.98
-28.29
-31.28
-33.99
-36.36
-38.17
-39.05
-38.59
-36.58
-33.12
-28.66
-23.86
-19.31
-15.41
-12.25
-9.70
-7.54
-5.54
-3.58
-1.66
0.11
1.54
2.40
2.50
1.76
0.21
-1.98
-4.65
-7.68
-11.05
-14.79
-18.88
-23.21
-27.41
-31.01
-33.41
-34.14
-32.96
-30.00
-25.68
-20.60
-15.34
-10.30
-5.64
-1.35
2.67
6.45
9.92
13.06
15.84
18.36
20.72
22.99
25.17
27.14
28.79
30.05
30.95
31.55
31.85
31.81
31.28
30.10
28.21
25.72
22.93
20.32
18.37
17.45
17.66
18.78
20.39
21.99
23.15
23.64
23.41
22.50
20.99
18.93
16.42
13.66
10.94
8.62
6.95
5.97
5.52
5.29
4.93
4.19
2.95
1.18
-1.09
-3.76
-6.69
-9.58
-12.03
-13.57
-13.80
-12.56
-10.07
-6.76
-3.27
-0.13
2.34
4.09
5.25
6.02
6.51
6.70
6.53
5.97
5.06
3.92
2.72
1.62
0.71
0.03
-0.42
-0.77
-1.20
-1.96
-3.34
-5.53
-8.53
-12.17
-16.06
-19.77
-22.89
-25.12
-26.29
-26.40
-25.56
-24.01
-22.08
-20.16
-18.58
-17.63
-17.44
-18.04
-19.35
-21.21
-23.40
-25.65
-27.69
-29.30
-30.35
-30.87
-31.05
-31.21
-31.74
-32.99
-35.17
-38.17
-41.54
-44.49
-46.08
-45.58
-42.63
-37.51
-30.97
-24.01
-17.53
-12.11
-7.95
-4.92
-2.79
-1.34
-0.50
-0.22
-0.51
-1.23
-2.19
-3.10
-3.69
-3.88
-3.75
-3.62
-3.92
-5.08
-7.35
-10.75
-14.97
-19.41
-23.29
-25.83
-26.46
-25.01
-21.74
-17.16
-11.86
-6.32
-0.79
4.61
9.76
14.40
18.16
20.68
21.75
21.42
20.01
18.04
16.04
14.43
13.43
13.03
13.00
12.96
12.51
11.32
9.20
6.16
2.43
-1.53
-5.14
-7.74
-8.84
-8.22
-6.03
-2.68
1.32
5.53
9.75
13.92
17.99
21.78
24.87
26.74
26.96
25.43
22.50
18.90
15.51
13.03
11.72
11.37
11.40
11.17
10.21
8.25
5.27
1.37
-3.19
-7.97
-12.25
-15.18
-15.97
-14.27
-10.30
-4.83
1.14
6.74
11.48
15.26
18.23
20.50
22.14
23.10
23.37
23.02
22.13
20.75
18.91
16.67
14.17
11.73
9.74
8.53
8.18
8.48
8.93
8.91
7.89
5.66
2.44
-1.11
-3.98
-5.11
-3.70
0.56
7.30
15.63
24.40
32.47
39.04
43.67
46.32
47.22
46.82
45.61
44.03
42.31
40.45
38.19
35.24
31.37
26.57
21.10
15.32
9.54
3.90
-1.65
-7.34
-13.48
-20.33
-28.03
-36.37
-44.66
-51.78
-56.36
-57.28
-54.04
-47.06
-37.52
-26.98
-16.92
-8.30
-1.56
3.29
6.37
7.84
7.90
6.92
5.45
4.19
3.73
4.39
6.11
8.46
10.80
12.44
12.91
12.03
9.93
7.00
3.70
0.40
-2.61
-5.17
-7.07
-8.07
-7.85
-6.19
-3.02
1.47
6.88
12.74
18.58
24.06
28.94
33.06
36.35
38.74
40.23
40.84
40.68
39.93
38.86
37.82
37.14
37.00
37.37
37.96
38.38
38.18
37.06
34.88
31.58
27.16
21.70
15.43
8.86
2.79
-1.89
-4.47
-4.70
-2.89
0.11
3.36
6.00
7.59
8.05
7.59
6.43
4.70
2.40
-0.53
-4.08
-8.04
-12.04
-15.62
-18.36
-20.03
-20.59
-20.23
-19.28
-18.10
-17.11
-16.70
-17.17
-18.67
-21.06
-23.84
-26.21
-27.24
-26.20
-22.77
-17.24
-10.35
-3.09
3.65
9.27
13.55
16.55
18.46
19.48
19.79
19.51
18.74
17.59
16.07
14.18
11.85
9.00
5.58
1.59
-2.89
-7.66
-12.47
-17.01
-21.06
-24.58
-27.78
-31.02
-34.66
-38.76
-42.97
-46.55
-48.64
-48.58
-46.18
-41.77
-36.04
-29.77
-23.55
-17.73
-12.46
-7.82
-3.92
-0.90
1.14
2.27
2.71
2.84
2.98
3.36
3.98
4.69
5.27
5.46
5.05
3.89
1.89
-0.91
-4.24
-7.57
-10.18
-11.32
-10.51
-7.72
-3.44
1.43
5.94
9.37
11.47
12.42
12.61
12.48
12.24
11.90
11.35
10.42
9.00
7.07
4.65
1.79
-1.37
-4.66
-7.77
-10.41
-12.36
-13.60
-14.40
-15.22
-16.56
-18.70
-21.45
-24.09
-25.55
-24.81
-21.28
-15.11
-7.15
1.35
9.19
15.54
20.11
23.04
24.66
25.30
25.23
24.64
23.74
22.75
21.84
21.04
20.26
19.30
17.97
16.18
13.98
11.49
8.84
6.07
3.08
-0.28
-4.18
-8.60
-13.29
-17.70
-21.04
-22.52
-21.64
-18.33
-13.07
-6.66
-0.07
5.94
10.90
14.71
17.42
19.18
20.05
20.00
18.99
17.01
14.18
10.76
7.06
3.43
0.12
-2.76
-5.24
-7.44
-9.51
-11.60
-13.81
-16.24
-18.95
-21.84
-24.62
-26.75
-27.56
-26.46
-23.17
-17.89
-11.31
-4.33
2.14
7.45
11.31
13.67
14.61
14.24
12.68
10.10
6.77
3.10
-0.51
-3.74
-6.43
-8.61
-10.44
-12.14
-13.92
-15.90
-18.17
-20.83
-23.94
-27.49
-31.29
-34.89
-37.57
-38.54
-37.19
-33.29
-27.12
-19.40
-11.07
-3.02
4.11
9.99
14.57
17.91
20.07
21.08
20.95
19.74
17.60
14.79
11.65
8.50
5.56
2.90
0.44
-1.97
-4.45
-7.12
-10.08
-13.44
-17.30
-21.60
-26.01
-29.85
-32.26
-32.45
-30.01
-25.07
-18.30
-10.62
-2.92
4.12
10.14
15.03
18.80
21.44
22.98
23.38
22.67
20.93
18.31
15.06
11.49
7.98
4.80
2.14
-0.05
-1.95
-3.88
-6.14
-8.96
-12.46
-16.56
-21.01
-25.31
-28.79
-30.70
-30.46
-27.81
-23.03
-16.83
-10.14
-3.84
1.45
5.51
8.38
10.15
10.91
10.62
9.25
6.86
3.76
0.45
-2.50
-4.57
-5.51
-5.41
-4.64
-3.75
-3.28
-3.70
-5.33
-8.35
-12.82
-18.59
-25.22
-31.86
-37.40
-40.66
-40.75
-37.45
-31.17
-22.96
-14.02
-5.45
1.98
7.90
12.20
14.89
16.07
15.92
14.76
13.07
11.36
9.96
8.94
8.07
6.96
5.27
2.92
0.13
-2.72
-5.25
-7.40
-9.43
-11.86
-15.22
-19.79
-25.43
-31.48
-36.93
-40.60
-41.57
-39.38
-34.20
-26.77
-18.11
-9.18
-0.59
7.42
14.88
21.78
27.94
33.03
36.71
38.87
39.67
39.51
38.80
37.82
36.66
35.30
33.72
32.05
30.51
29.32
28.49
27.82
26.86
25.16
22.42
18.58
13.85
8.62
3.38
-1.34
-4.97
-6.95
-6.86
-4.53
-0.19
5.59
12.03
18.46
24.51
30.12
35.42
40.46
45.09
48.92
51.54
52.78
52.76
51.91
50.76
49.70
48.89
48.29
47.75
47.21
46.68
46.24
45.91
45.58
45.01
43.89
41.90
38.86
34.70
29.49
23.38
16.49
8.98
1.00
-7.12
-14.82
-21.30
-25.73
-27.54
-26.70
-23.79
-19.80
-15.81
-12.67
-10.86
-10.53
-11.61
-13.97
-17.31
-21.19
-24.96
-27.87
-29.31
-28.95
-26.85
-23.43
-19.35
-15.30
-11.97
-9.82
-9.14
-9.96
-12.17
-15.50
-19.66
-24.20
-28.54
-31.92
-33.54
-32.79
-29.46
-23.81
-16.54
-8.48
-0.47
6.90
13.17
18.02
21.20
22.56
22.17
20.36
17.71
14.86
12.37
10.57
9.50
8.99
8.74
8.42
7.78
6.65
4.96
2.72
-0.01
-3.11
-6.48
-9.98
-13.40
-16.40
-18.49
-19.18
-18.08
-15.10
-10.49
-4.78
1.36
7.34
12.82
17.65
21.84
25.36
28.10
29.85
30.37
29.51
27.28
23.85
19.51
14.61
9.53
4.60
0.09
-3.83
-7.14
-10.00
-12.68
-15.59
-19.15
-23.70
-29.37
-35.90
-42.61
-48.39
-52.06
-52.63
-49.78
-43.93
-36.16
-27.75
-19.81
-13.01
-7.57
-3.50
-0.80
0.43
0.16
-1.46
-3.96
-6.64
-8.84
-10.19
-10.65
-10.54
-10.22
-9.99
-9.99
-10.24
-10.84
-11.98
-13.91
-16.74
-20.24
-23.81
-26.56
-27.61
-26.41
-22.88
-17.43
-10.81
-3.87
2.67
8.30
12.78
16.08
18.35
19.88
21.00
22.01
23.10
24.33
25.62
26.82
27.76
28.24
28.15
27.39
25.95
23.90
21.34
18.37
15.01
11.22
7.03
2.68
-1.36
-4.41
-5.83
-5.30
-2.92
0.83
5.28
9.87
14.27
18.39
22.16
25.45
27.99
29.45
29.66
28.72
26.94
24.73
22.36
19.85
16.98
13.47
9.22
4.40
-0.57
-5.20
-9.12
-12.30
-14.99
-17.72
-21.02
-25.29
-30.60
-36.68
-42.96
-48.66
-52.98
-55.28
-55.22
-52.75
-48.16
-41.97
-34.83
-27.41
-20.30
-13.98
-8.77
-4.87
-2.39
-1.35
-1.67
-3.11
-5.28
-7.74
-10.11
-12.22
-14.18
-16.34
-19.13
-22.92
-27.85
-33.73
-39.93
-45.55
-49.50
-50.85
-49.07
-44.25
-37.06
-28.53
-19.80
-11.78
-5.01
0.28
4.12
6.69
8.25
9.12
9.65
10.11
10.63
11.17
11.53
11.56
11.13
10.28
9.09
7.69
6.15
4.49
2.70
0.76
-1.33
-3.51
-5.60
-7.20
-7.79
-6.84
-4.05
0.56
6.51
13.10
19.56
25.26
29.83
33.13
35.16
36.01
35.86
34.98
33.74
32.47
31.43
30.69
30.12
29.47
28.46
26.85
24.57
21.69
18.41
14.95
11.49
8.09
4.83
1.82
-0.65
-2.20
-2.42
-1.17
1.42
4.87
8.62
12.17
15.24
17.77
19.83
21.48
22.75
23.64
24.22
24.61
24.92
25.23
25.50
25.60
25.42
24.91
24.09
23.06
21.87
20.54
19.09
17.48
15.67
13.56
11.02
7.93
4.34
0.56
-2.90
-5.48
-6.81
-6.88
-6.04
-4.90
-4.07
-4.01
-5.00
-7.14
-10.47
-14.89
-20.11
-25.57
-30.49
-34.03
-35.57
-34.95
-32.58
-29.27
-25.99
-23.57
-22.45
-22.70
-23.99
-25.82
-27.53
-28.41
-27.82
-25.25
-20.56
-14.06
-6.43
1.41
8.62
14.66
19.39
22.94
25.53
27.33
28.43
28.83
28.59
27.77
26.48
24.80
22.76
20.36
17.62
14.62
11.50
8.49
5.75
3.41
1.41
-0.46
-2.46
-4.81
-7.46
-10.06
-12.07
-12.89
-12.22
-10.13
-7.03
-3.54
-0.18
2.73
5.10
6.91
8.15
8.68
8.34
7.02
4.78
1.82
-1.54
-4.96
-8.18
-11.02
-13.39
-15.30
-16.85
-18.22
-19.63
-21.29
-23.27
-25.49
-27.66
-29.33
-30.02
-29.37
-27.23
-23.77
-19.43
-14.80
-10.49
-6.99
-4.66
-3.68
-4.15
-6.08
-9.29
-13.37
-17.61
-21.16
-23.22
-23.34
-21.56
-18.41
-14.76
-11.50
-9.41
-8.94
-10.20
-12.94
-16.53
-19.99
-22.21
-22.22
-19.55
-14.41
-7.67
-0.51
5.95
11.03
14.61
16.99
18.62
19.92
21.09
22.12
22.89
23.24
23.02
22.12
20.46
18.00
14.78
10.92
6.71
2.50
-1.32
-4.50
-6.99
-8.93
-10.57
-12.04
-13.34
-14.23
-14.39
-13.63
-11.90
-9.39
-6.39
-3.19
0.06
3.26
6.41
9.41
12.00
13.82
14.44
13.60
11.26
7.73
3.58
-0.51
-3.94
-6.40
-7.88
-8.73
-9.47
-10.69
-12.84
-16.06
-20.07
-24.17
-27.37
-28.61
-27.19
-22.94
-16.34
-8.40
-0.26
7.12
13.21
17.93
21.47
24.00
25.64
26.37
26.26
25.46
24.29
23.08
22.05
21.22
20.46
19.56
18.39
16.96
15.34
13.60
11.73
9.71
7.64
5.78
4.64
4.74
6.45
9.80
14.41
19.68
25.05
30.13
34.74
38.83
42.21
44.61
45.67
45.13
42.93
39.29
34.58
29.23
23.65
18.19
13.14
8.74
5.15
2.39
0.33
-1.29
-2.81
-4.54
-6.71
-9.29
-11.96
-14.11
-15.06
-14.26
-11.54
-7.23
-2.01
3.30
8.00
11.66
14.15
15.47
15.63
14.67
12.63
9.67
6.09
2.32
-1.13
-3.86
-5.56
-6.16
-5.80
-4.85
-3.78
-3.12
-3.31
-4.69
-7.35
-11.13
-15.61
-20.10
-23.80
-25.93
-25.99
-23.90
-20.02
-15.04
-9.75
-4.88
-0.94
1.75
3.06
3.00
1.78
-0.21
-2.41
-4.28
-5.46
-5.87
-5.74
-5.45
-5.39
-5.82
-6.93
-8.81
-11.53
-15.01
-18.94
-22.67
-25.33
-26.06
-24.33
-20.14
-14.04
-6.92
0.25
6.78
12.29
16.70
20.02
22.25
23.29
23.00
21.33
18.47
14.82
10.89
7.17
3.89
1.09
-1.39
-3.79
-6.29
-9.03
-12.12
-15.60
-19.40
-23.26
-26.62
-28.73
-28.91
-26.77
-22.42
-16.47
-9.85
-3.49
1.89
5.89
8.48
9.80
10.05
9.40
7.89
5.59
2.61
-0.82
-4.33
-7.50
-10.04
-11.79
-12.87
-13.57
-14.25
-15.24
-16.73
-18.73
-21.07
-23.41
-25.25
-26.05
-25.36
-22.97
-18.94
-13.64
-7.59
-1.31
4.75
10.25
14.94
18.62
21.13
22.40
22.42
21.31
19.28
16.64
13.72
10.82
8.19
5.93
4.02
2.28
0.46
-1.72
-4.45
-7.81
-11.66
-15.61
-19.04
-21.23
-21.49
-19.47
-15.25
-9.36
-2.60
4.19
10.36
15.51
19.43
22.07
23.44
23.58
22.64
20.86
18.56
16.05
13.54
11.14
8.87
6.71
4.67
2.76
0.95
-0.87
-2.90
-5.35
-8.35
-11.84
-15.42
-18.51
-20.40
-20.58
-18.92
-15.75
-11.78
-7.82
-4.55
-2.33
-1.26
-1.28
-2.28
-4.19
-6.86
-9.93
-12.75
-14.60
-14.92
-13.58
-10.98
-7.89
-5.17
-3.45
-3.02
-3.88
-5.82
-8.44
-11.25
-13.55
-14.57
-13.69
-10.62
-5.60
0.72
7.43
13.69
18.84
22.57
24.78
25.57
25.14
23.77
21.73
19.36
17.01
15.01
13.66
13.11
13.23
13.62
13.72
13.04
11.30
8.55
5.08
1.23
-2.69
-6.36
-9.38
-11.24
-11.42
-9.70
-6.27
-1.79
2.87
6.94
10.04
12.19
13.70
14.91
16.04
17.12
18.07
18.79
19.19
19.22
18.93
18.39
17.74
17.11
16.55
16.01
15.41
14.63
13.57
12.15
10.37
8.26
5.99
3.94
2.68
2.76
4.48
7.73
11.92
16.20
19.73
21.97
22.77
22.30
20.89
18.87
16.52
14.04
11.61
9.39
7.45
5.74
4.09
2.24
0.07
-2.44
-5.08
-7.63
-9.93
-12.09
-14.33
-16.89
-19.75
-22.50
-24.48
-25.01
-23.70
-20.62
-16.30
-11.47
-6.79
-2.78
0.28
2.23
2.94
2.32
0.39
-2.65
-6.36
-10.15
-13.49
-15.99
-17.60
-18.51
-19.16
-19.97
-21.26
-23.14
-25.58
-28.30
-30.86
-32.66
-32.99
-31.26
-27.16
-20.85
-13.02
-4.69
3.07
9.44
14.00
16.82
18.26
18.81
18.96
19.01
19.11
19.22
19.23
19.01
18.49
17.70
16.66
15.39
13.80
11.70
8.82
4.93
-0.12
-6.22
-13.02
-19.88
-25.98
-30.54
-33.00
-33.22
-31.48
-28.37
-24.56
-20.63
-16.94
-13.69
-10.98
-8.94
-7.72
-7.47
-8.22
-9.84
-11.97
-14.20
-16.16
-17.63
-18.67
-19.54
-20.63
-22.25
-24.60
-27.57
-30.82
-33.72
-35.47
-35.30
-32.65
-27.39
-19.93
-11.09
-1.89
6.79
14.42
20.78
25.91
29.85
32.56
34.00
34.21
33.43
32.07
30.62
29.43
28.64
28.15
27.74
27.19
26.35
25.14
23.50
21.41
18.89
16.10
13.43
11.40
10.56
11.25
13.48
16.91
20.95
25.03
28.71
31.84
34.44
36.55
38.17
39.14
39.27
38.39
36.40
33.31
29.27
24.49
19.26
13.85
8.44
3.03
-2.53
-8.49
-15.03
-22.01
-28.96
-35.12
-39.67
-41.98
-41.80
-39.29
-34.93
-29.36
-23.21
-17.03
-11.19
-5.96
-1.53
1.92
4.19
5.08
4.51
2.62
-0.17
-3.31
-6.29
-8.82
-10.94
-12.87
-14.94
-17.41
-20.43
-24.09
-28.39
-33.18
-38.02
-42.12
-44.51
-44.34
-41.26
-35.61
-28.38
-20.76
-13.83
-8.12
-3.72
-0.39
2.10
3.79
4.53
4.15
2.63
0.14
-2.95
-6.27
-9.50
-12.46
-15.07
-17.31
-19.21
-20.90
-22.63
-24.69
-27.31
-30.48
-33.84
-36.73
-38.37
-38.12
-35.75
-31.48
-25.91
-19.80
-13.83
-8.45
-3.83
0.01
3.07
5.31
6.57
6.71
5.64
3.47
0.51
-2.76
-5.85
-8.37
-10.13
-11.13
-11.49
-11.41
-11.03
-10.53
-10.06
-9.76
-9.64
-9.55
-9.14
-7.94
-5.56
-1.83
3.16
9.09
15.56
22.20
28.65
34.56
39.50
43.09
45.06
45.41
44.44
42.69
40.69
38.83
37.23
35.75
34.08
31.90
28.94
25.11
20.45
15.14
9.46
3.73
-1.72
-6.67
-10.97
-14.57
-17.43
-19.51
-20.71
-20.92
-20.01
-17.90
-14.57
-10.08
-4.55
1.81
8.74
15.84
22.64
28.59
33.14
35.86
36.56
35.38
32.75
29.30
25.68
22.38
19.63
17.41
15.54
13.82
12.11
10.36
8.51
6.47
4.12
1.33
-1.91
-5.50
-9.22
-12.89
-16.32
-19.34
-21.73
-23.18
-23.36
-22.04
-19.18
-15.05
-10.10
-4.77
0.62
5.96
11.26
16.53
21.62
26.25
30.04
32.60
33.72
33.36
31.67
28.98
25.69
22.21
18.78
15.52
12.40
9.31
6.14
2.90
-0.39
-3.63
-6.77
-9.78
-12.66
-15.40
-18.03
-20.66
-23.47
-26.61
-30.07
-33.47
-36.15
-37.24
-36.10
-32.51
-26.85
-19.96
-12.84
-6.35
-1.00
3.09
6.02
7.97
9.09
9.49
9.28
8.68
8.01
7.57
7.50
7.68
7.71
7.12
5.64
3.38
0.78
-1.55
-3.21
-4.19
-4.81
-5.65
-7.20
-9.74
-13.25
-17.44
-21.75
-25.51
-27.96
-28.53
-27.03
-23.72
-19.22
-14.26
-9.40
-4.90
-0.77
3.09
6.67
9.81
12.28
13.94
14.83
15.18
15.27
15.31
15.32
15.17
14.67
13.68
12.21
10.45
8.71
7.21
6.08
5.25
4.55
3.78
2.83
1.63
0.12
-1.74
-3.94
-6.31
-8.46
-9.82
-9.82
-8.07
-4.58
0.30
5.96
11.77
17.28
22.24
26.51
30.04
32.74
34.53
35.46
35.71
35.63
35.60
35.93
36.74
37.88
39.07
39.92
40.13
39.57
38.24
36.26
33.77
30.88
27.67
24.20
20.57
16.93
13.39
9.95
6.46
2.75
-1.33
-5.66
-9.83
-13.29
-15.47
-16.07
-15.12
-13.03
-10.39
-7.87
-5.94
-4.86
-4.64
-5.08
-5.89
-6.79
-7.60
-8.26
-8.76
-9.16
-9.53
-9.94
-10.45
-11.14
-12.01
-12.99
-13.90
-14.57
-14.88
-14.92
-14.94
-15.26
-16.10
-17.41
-18.84
-19.86
-19.97
-18.89
-16.68
-13.73
-10.52
-7.43
-4.67
-2.19
0.08
2.19
4.07
5.58
6.64
7.30
7.75
8.19
8.70
9.21
9.48
9.23
8.31
6.72
4.66
2.40
0.21
-1.75
-3.43
-4.93
-6.41
-8.03
-9.85
-11.78
-13.55
-14.83
-15.32
-14.91
-13.68
-11.89
-9.84
-7.79
-5.85
-4.02
-2.31
-0.72
0.63
1.62
2.12
2.06
1.45
0.40
-0.91
-2.25
-3.43
-4.33
-4.92
-5.27
-5.48
-5.58
-5.57
-5.43
-5.23
-5.08
-5.11
-5.33
-5.56
-5.41
-4.43
-2.28
1.14
5.68
10.98
16.61
22.17
27.29
31.69
35.17
37.67
39.30
40.35
41.25
42.48
44.36
47.03
50.32
53.85
57.07
59.48
60.66
60.38
58.57
55.24
50.47
44.43
37.28
29.22
20.45
11.20
1.79
-7.35
-15.61
-22.37
-27.20
-29.98
-30.99
-30.81
-30.10
-29.43
-29.10
-29.21
-29.75
-30.66
-31.82
-33.05
-34.12
-34.83
-35.07
-34.91
-34.50
-34.08
-33.77
-33.63
-33.60
-33.62
-33.63
-33.65
-33.71
-33.87
-34.16
-34.58
-35.05
-35.37
-35.26
-34.34
-32.34
-29.14
-24.92
-20.12
-15.27
-10.93
-7.44
-4.91
-3.29
-2.39
-2.01
-1.94
-1.99
-2.01
-1.89
-1.62
-1.26
-0.92
-0.73
-0.70
-0.77
-0.78
-0.61
-0.20
0.36
0.91
1.41
2.03
3.19
5.53
9.62
15.71
23.63
32.71
41.97
50.32
56.80
60.74
61.85
60.25
56.42
51.17
45.44
40.15
35.98
33.30
32.08
32.05
32.78
33.76
34.50
34.58
33.66
31.55
28.18
23.65
18.13
11.89
5.29
-1.32
-7.52
-12.94
-17.33
-20.64
-22.99
-24.65
-25.94
-27.12
-28.40
-29.96
-32.02
-34.83
-38.61
-43.41
-48.95
-54.71
-59.98
-64.20
-67.12
-68.95
-70.24
-71.64
-73.67
-76.49
-79.86
-83.25
-85.96
-87.29
-86.63
-83.54
-77.85
-69.78
-59.86
-48.96
-38.06
-28.02
-19.45
-12.60
-7.39
-3.52
-0.63
1.65
3.59
5.37
7.05
8.60
9.91
10.89
11.48
11.68
11.54
11.09
10.35
9.22
7.63
5.49
2.80
-0.31
-3.56
-6.61
-9.09
-10.74
-11.41
-11.20
-10.32
-9.03
-7.58
-6.11
-4.69
-3.37
-2.25
-1.57
-1.60
-2.56
-4.51
-7.30
-10.61
-14.06
-17.40
-20.60
-23.85
-27.51
-31.87
-37.12
-43.16
-49.67
-56.13
-61.84
-66.08
-68.13
-67.47
-63.96
-57.92
-50.09
-41.46
-32.89
-24.88
-17.42
-10.21
-2.91
4.54
11.85
18.51
24.14
28.64
32.27
35.43
38.42
41.18
43.34
44.40
43.99
42.12
39.09
35.42
31.49
27.58
23.81
20.42
17.88
16.85
18.07
22.02
28.79
38.04
49.11
61.29
73.94
86.54
98.70
109.96
119.79
127.58
132.76
134.99
134.33
131.34
126.90
121.96
117.12
112.37
107.08
100.32
91.21
79.38
65.08
49.07
32.40
16.15
1.30
-11.30
-20.94
-27.09
-29.60
-28.85
-25.88
-22.13
-19.10
-17.82
-18.60
-20.95
-23.93
-26.56
-28.18
-28.59
-27.90
-26.40
-24.37
-22.08
-19.86
-18.07
-16.97
-16.65
-16.89
-17.29
-17.44
-17.04
-16.08
-14.67
-13.02
-11.22
-9.32
-7.30
-5.16
-3.03
-1.08
0.50
1.58
2.08
1.92
0.93
-1.20
-4.84
-10.15
-16.95
-24.50
-31.69
-37.36
-40.78
-41.93
-41.42
-40.27
-39.43
-39.46
-40.43
-42.01
-43.70
-45.07
-45.91
-46.23
-46.21
-46.02
-45.67
-44.93
-43.30
-40.17
-35.17
-28.42
-20.67
-13.20
-7.43
-4.47
-4.83
-8.26
-14.00
-21.01
-28.34
-35.28
-41.38
-46.36
-49.93
-51.83
-51.79
-49.72
-45.86
-40.73
-35.15
-29.96
-25.87
-23.33
-22.49
-23.31
-25.60
-29.07
-33.19
-37.17
-39.97
-40.64
-38.58
-33.88
-27.24
-19.70
-12.18
-5.15
1.34
7.41
13.05
17.98
21.81
24.34
25.72
26.34
26.58
26.52
25.94
24.50
22.04
18.75
15.09
11.51
8.22
5.13
1.89
-1.86
-6.30
-11.32
-16.52
-21.22
-24.67
-26.17
-25.37
-22.36
-17.63
-11.90
-5.92
-0.28
4.69
8.87
12.29
15.05
17.21
18.77
19.62
19.59
18.56
16.57
13.88
10.91
8.02
5.40
2.99
0.61
-1.95
-4.81
-8.01
-11.54
-15.37
-19.39
-23.31
-26.65
-28.77
-29.06
-27.15
-22.99
-16.94
-9.63
-1.83
5.77
12.65
18.48
23.17
26.65
28.89
29.81
29.35
27.63
24.96
21.85
18.83
16.29
14.34
12.86
11.61
10.36
8.95
7.23
4.95
1.81
-2.48
-7.95
-14.16
-20.25
-25.04
-27.46
-26.90
-23.33
-17.33
-9.78
-1.60
6.52
14.14
21.07
27.23
32.60
37.11
40.70
43.27
44.77
45.17
44.50
42.83
40.35
37.28
33.87
30.36
26.96
23.78
20.90
18.27
15.73
13.00
9.73
5.64
0.69
-4.83
-10.28
-14.79
-17.54
-18.00
-16.07
-12.05
-6.54
-0.14
6.63
13.37
19.79
25.59
30.42
34.01
36.18
36.99
36.66
35.52
33.89
31.96
29.78
27.33
24.59
21.58
18.38
15.11
11.85
8.65
5.44
2.06
-1.75
-6.18
-11.27
-16.73
-21.94
-26.05
-28.26
-28.01
-25.21
-20.21
-13.66
-6.27
1.33
8.70
15.56
21.76
27.16
31.62
34.99
37.18
38.17
38.10
37.18
35.69
33.83
31.66
29.12
26.16
22.84
19.38
16.16
13.50
11.51
10.00
8.49
6.37
3.17
-1.28
-6.75
-12.61
-18.00
-22.05
-24.08
-23.82
-21.36
-17.12
-11.66
-5.52
0.84
7.02
12.67
17.51
21.33
24.06
25.77
26.60
26.69
26.16
25.05
23.43
21.40
19.08
16.65
14.22
11.86
9.61
7.45
5.34
3.18
0.85
-1.79
-4.87
-8.48
-12.56
-16.87
-20.92
-24.04
-25.54
-24.99
-22.36
-18.08
-12.84
-7.34
-2.04
2.87
7.35
11.36
14.74
17.22
18.60
18.84
18.16
16.91
15.41
13.92
12.53
11.20
9.79
8.19
6.32
4.23
2.04
-0.08
-1.98
-3.70
-5.36
-7.21
-9.47
-12.26
-15.55
-19.08
-22.45
-25.09
-26.49
-26.24
-24.25
-20.78
-16.32
-11.45
-6.62
-2.02
2.35
6.53
10.43
13.80
16.34
17.80
18.16
17.60
16.49
15.14
13.78
12.40
10.90
9.14
7.07
4.78
2.49
0.40
-1.40
-2.99
-4.58
-6.43
-8.73
-11.57
-14.96
-18.80
-22.86
-26.75
-29.89
-31.68
-31.69
-29.84
-26.43
-22.03
-17.25
-12.55
-8.17
-4.17
-0.55
2.63
5.21
7.00
7.87
7.88
7.22
6.23
5.22
4.33
3.49
2.45
0.92
-1.20
-3.74
-6.31
-8.50
-10.10
-11.25
-12.33
-13.77
-15.86
-18.61
-21.81
-25.12
-28.17
-30.63
-32.18
-32.59
-31.71
-29.57
-26.37
-22.37
-17.80
-12.73
-7.14
-1.05
5.32
11.49
16.88
21.02
23.74
25.19
25.78
25.95
26.00
26.08
26.11
25.91
25.28
24.02
22.02
19.35
16.23
13.04
10.16
7.84
6.14
4.82
3.49
1.65
-1.06
-4.75
-9.11
-13.48
-16.99
-18.85
-18.60
-16.28
-12.34
-7.46
-2.28
2.73
7.30
11.23
14.34
16.47
17.56
17.76
17.38
16.83
16.41
16.21
16.10
15.75
14.83
13.08
10.50
7.33
3.97
0.91
-1.54
-3.27
-4.49
-5.53
-6.79
-8.59
-11.04
-14.01
-17.15
-19.88
-21.58
-21.72
-20.08
-16.85
-12.56
-7.91
-3.46
0.50
3.90
6.79
9.10
10.59
11.00
10.25
8.56
6.45
4.49
3.09
2.36
2.08
1.91
1.57
0.87
-0.22
-1.64
-3.30
-5.07
-6.83
-8.50
-10.10
-11.75
-13.57
-15.57
-17.53
-19.02
-19.56
-18.83
-16.74
-13.48
-9.38
-4.79
-0.10
4.35
8.17
11.02
12.73
13.31
13.03
12.31
11.56
11.04
10.84
10.85
10.87
10.65
9.99
8.83
7.23
5.42
3.67
2.21
1.11
0.20
-0.83
-2.29
-4.32
-6.75
-9.10
-10.70
-10.94
-9.45
-6.27
-1.74
3.56
9.06
14.31
19.01
22.96
26.02
28.07
29.06
29.09
28.43
27.43
26.46
25.74
25.29
24.90
24.23
22.94
20.84
17.95
14.55
11.00
7.63
4.56
1.71
-1.18
-4.36
-7.96
-11.83
-15.60
-18.71
-20.60
-20.82
-19.23
-16.04
-11.76
-7.08
-2.62
1.21
4.24
6.49
7.99
8.75
8.73
7.93
6.46
4.57
2.58
0.71
-0.88
-2.27
-3.60
-5.05
-6.72
-8.58
-10.53
-12.44
-14.26
-16.07
-17.99
-20.06
-22.13
-23.81
-24.62
-24.16
-22.28
-19.19
-15.29
-11.11
-7.11
-3.64
-0.94
0.90
1.87
2.10
1.79
1.20
0.49
-0.22
-0.95
-1.76
-2.71
-3.80
-4.98
-6.18
-7.28
-8.25
-9.16
-10.14
-11.41
-13.12
-15.31
-17.76
-20.04
-21.60
-21.92
-20.74
-18.11
-14.37
-10.02
-5.56
-1.38
2.32
5.50
8.16
10.31
11.91
12.88
13.17
12.79
11.82
10.45
8.87
7.27
5.75
4.33
2.95
1.52
-0.07
-1.94
-4.19
-6.83
-9.80
-12.86
-15.63
-17.67
-18.53
-17.93
-15.85
-12.53
-8.45
-4.17
-0.19
3.14
5.70
7.58
8.90
9.76
10.18
10.07
9.37
8.14
6.54
4.83
3.25
1.90
0.77
-0.27
-1.35
-2.62
-4.18
-6.17
-8.63
-11.51
-14.55
-17.30
-19.23
-19.89
-19.04
-16.70
-13.17
-8.87
-4.30
0.05
3.79
6.70
8.79
10.23
11.27
12.08
12.67
12.91
12.63
11.75
10.36
8.64
6.80
4.95
3.15
1.40
-0.33
-2.05
-3.87
-5.92
-8.35
-11.16
-14.06
-16.54
-17.95
-17.80
-15.90
-12.51
-8.17
-3.54
0.83
4.62
7.78
10.42
12.70
14.67
16.26
17.27
17.50
16.89
15.55
13.77
11.90
10.22
8.86
7.72
6.60
5.26
3.54
1.33
-1.38
-4.49
-7.73
-10.66
-12.76
-13.55
-12.75
-10.40
-6.87
-2.70
1.56
5.48
8.87
11.71
14.05
15.90
17.21
17.81
17.60
16.57
14.83
12.64
10.26
7.92
5.75
3.78
1.93
0.08
-1.91
-4.13
-6.65
-9.50
-12.63
-15.86
-18.88
-21.20
-22.33
-21.90
-19.82
-16.37
-12.08
-7.59
-3.37
0.30
3.44
6.15
8.50
10.42
11.79
12.47
12.40
11.59
10.17
8.32
6.25
4.18
2.23
0.43
-1.27
-2.94
-4.69
-6.59
-8.72
-11.12
-13.72
-16.22
-18.16
-19.00
-18.32
-16.05
-12.44
-8.02
-3.40
1.00
4.94
8.34
11.20
13.49
15.15
16.16
16.52
16.29
15.54
14.38
12.94
11.34
9.69
8.01
6.29
4.54
2.79
1.12
-0.44
-1.97
-3.62
-5.52
-7.67
-9.79
-11.47
-12.28
-11.98
-10.61
-8.47
-5.97
-3.49
-1.33
0.37
1.51
2.07
2.05
1.50
0.47
-0.96
-2.70
-4.62
-6.49
-8.06
-9.15
-9.68
-9.77
-9.64
-9.50
-9.50
-9.75
-10.33
-11.26
-12.47
-13.76
-14.74
-14.96
-14.06
-11.92
-8.69
-4.70
-0.37
3.94
7.93
11.39
14.19
16.30
17.80
18.83
19.60
20.26
20.85
21.33
21.60
21.48
20.78
19.36
17.18
14.36
11.23
8.22
5.72
3.89
2.63
1.63
0.51
-0.97
-2.77
-4.64
-6.14
-6.86
-6.53
-5.07
-2.56
0.73
4.49
8.32
11.84
14.71
16.68
17.62
17.60
16.79
15.52
14.10
12.78
11.74
11.06
10.66
10.45
10.19
9.65
8.66
7.15
5.23
3.12
1.02
-0.96
-2.83
-4.63
-6.33
-7.71
-8.53
-8.55
-7.74
-6.24
-4.34
-2.24
-0.09
2.04
4.09
5.88
7.19
7.84
7.78
7.14
6.18
5.18
4.30
3.63
3.11
2.69
2.28
1.82
1.32
0.75
0.11
-0.67
-1.65
-2.88
-4.34
-5.91
-7.40
-8.57
-9.18
-9.09
-8.22
-6.67
-4.65
-2.48
-0.50
1.07
2.14
2.80
3.22
3.55
3.89
4.18
4.33
4.24
3.89
3.34
2.73
2.23
1.95
1.93
2.09
2.27
2.28
1.99
1.34
0.31
-1.05
-2.60
-4.11
-5.15
-5.29
-4.19
-1.85
1.30
4.61
7.36
9.11
9.74
9.45
8.47
6.98
5.06
2.74
0.18
-2.38
-4.66
-6.51
-7.94
-9.17
-10.42
-11.82
-13.30
-14.63
-15.53
-15.78
-15.36
-14.49
-13.53
-12.78
-12.35
-12.09
-11.64
-10.70
-9.16
-7.22
-5.26
-3.68
-2.62
-2.01
-1.57
-1.10
-0.49
0.17
0.72
1.02
1.00
0.67
0.02
-0.94
-2.18
-3.63
-5.12
-6.46
-7.44
-8.00
-8.25
-8.50
-9.08
-10.20
-11.78
-13.43
-14.54
-14.61
-13.42
-11.13
-8.14
-4.95
-1.89
0.80
2.94
4.33
4.81
4.34
3.14
1.60
0.17
-0.84
