1659765014.00
64.000000
-0.00
-0.00
-0.00
-0.00
-0.00
-0.00
-0.00
-0.00
-0.00
-0.00
0.00
0.01
0.01
-0.00
-0.03
-0.05
-0.05
0.00
0.13
0.36
0.66
1.01
1.37
1.72
2.06
2.40
2.79
3.24
3.80
4.42
5.06
5.66
6.20
6.68
7.15
7.68
8.31
9.14
10.09
11.04
11.88
12.56
13.14
13.76
14.65
15.96
17.91
20.32
22.90
25.38
27.58
29.57
31.68
34.32
37.81
42.54
48.15
54.10
59.83
64.97
69.58
74.14
79.34
85.71
93.76
103.00
112.62
121.73
129.77
136.75
143.30
150.75
157.77
166.64
177.95
191.79
206.97
220.57
228.25
225.36
208.53
176.87
132.76
80.05
23.07
-34.94
-92.44
-149.16
-205.23
-260.37
-313.74
-363.87
-409.83
-450.91
-486.50
-515.74
-537.23
-549.22
-549.96
-538.37
-514.21
-478.67
-433.88
-382.45
-327.02
-269.84
-212.63
-156.66
-102.95
-52.37
-5.90
35.58
71.43
101.35
125.50
144.38
158.69
169.15
176.37
180.75
182.57
182.07
179.51
175.23
169.65
163.18
156.15
148.81
141.30
133.69
126.02
118.33
110.69
103.16
95.80
88.68
81.83
75.25
68.95
62.95
57.25
51.86
46.78
42.03
37.59
33.45
29.61
26.07
22.81
19.83
17.11
14.67
12.48
10.54
8.83
7.35
6.07
4.97
4.05
3.27
2.62
2.09
1.65
1.30
1.01
0.79
0.61
0.47
0.37
0.28
0.23
0.18
0.15
0.13
0.13
0.13
0.14
0.16
0.18
0.21
0.25
0.29
0.33
0.37
0.42
0.46
0.51
0.56
0.61
0.67
0.72
0.78
0.85
0.92
1.00
1.09
1.19
1.30
1.42
1.56
1.72
1.89
2.09
2.30
2.54
2.80
3.09
3.41
3.76
4.14
4.56
5.01
5.50
6.03
6.60
7.21
7.86
8.56
9.30
10.09
10.92
11.79
12.71
13.69
14.74
15.86
17.04
18.26
19.49
20.69
21.82
22.84
23.69
24.28
24.48
24.18
23.24
21.55
19.06
15.81
11.88
7.46
2.79
-1.92
-6.48
-10.75
-14.61
-17.97
-20.75
-22.84
-24.16
-24.69
-24.51
-23.81
-22.88
-22.00
-21.38
-21.05
-20.88
-20.61
-20.05
-19.13
-18.02
-17.07
-16.64
-16.95
-17.93
-19.21
-20.27
-20.65
-20.25
-19.34
-18.55
-18.54
-19.73
-22.07
-24.99
-27.77
-29.73
-30.62
-30.72
-30.64
-31.14
-32.94
-36.62
-42.40
-49.88
-57.68
-63.39
-64.13
-57.63
-43.29
-22.87
-0.02
20.98
36.79
46.10
49.65
49.34
47.11
44.15
40.81
37.09
33.16
29.34
26.19
24.01
22.66
21.67
20.46
18.63
16.18
13.48
11.06
9.39
8.64
8.59
8.76
8.55
7.60
5.87
3.68
1.53
-0.21
-1.54
-2.79
-4.50
-7.02
-10.32
-13.86
-16.80
-18.27
-17.72
-15.06
-10.67
-5.24
0.44
5.67
10.03
13.36
15.72
17.30
18.27
18.70
18.65
18.12
17.21
16.08
14.91
13.84
12.90
12.00
11.00
9.79
8.35
6.78
5.19
3.70
2.33
1.02
-0.34
-1.78
-3.26
-4.68
-5.92
-6.97
-7.91
-8.96
-10.31
-12.11
-14.46
-17.30
-20.50
-23.76
-26.54
-28.19
-28.06
-25.75
-21.36
-15.45
-8.88
-2.53
3.03
7.63
11.44
14.70
17.57
20.03
21.90
23.03
23.42
23.22
22.64
21.90
21.08
20.22
19.32
18.45
17.73
17.24
17.02
16.92
16.68
16.05
14.87
13.17
11.09
8.84
6.53
4.21
1.84
-0.58
-3.01
-5.37
-7.58
-9.60
-11.40
-13.02
-14.48
-15.87
-17.31
-19.03
-21.18
-23.79
-26.57
-28.97
-30.30
-29.93
-27.57
-23.32
-17.68
-11.34
-4.98
0.85
5.92
10.17
13.67
16.48
18.60
19.94
20.51
20.39
19.77
18.88
17.88
16.81
15.66
14.38
13.03
11.71
10.55
9.58
8.75
7.93
6.94
5.67
4.04
2.03
-0.35
-3.01
-5.78
-8.41
-10.73
-12.76
-14.67
-16.81
-19.40
-22.45
-25.59
-28.24
-29.71
-29.52
-27.49
-23.79
-18.88
-13.34
-7.75
-2.55
2.00
5.74
8.66
10.76
12.04
12.52
12.23
11.28
9.89
8.33
6.88
5.75
5.03
4.69
4.56
4.45
4.17
3.54
2.46
0.92
-1.05
-3.35
-5.90
-8.58
-11.34
-14.11
-16.90
-19.80
-22.97
-26.59
-30.68
-34.94
-38.78
-41.38
-42.00
-40.22
-36.13
-30.24
-23.30
-15.98
-8.79
-2.02
4.14
9.51
13.97
17.39
19.77
21.21
21.84
21.77
21.14
20.09
18.80
17.56
16.61
16.09
15.98
16.14
16.32
16.33
16.02
15.35
14.28
12.82
11.05
9.08
7.05
5.07
3.09
0.92
-1.73
-5.08
-9.04
-13.13
-16.62
-18.68
-18.78
-16.78
-12.97
-7.93
-2.32
3.23
8.27
12.51
15.80
18.13
19.59
20.34
20.55
20.35
19.81
19.01
18.06
17.08
16.21
15.47
14.85
14.30
13.86
13.65
13.83
14.45
15.34
16.13
16.36
15.74
14.23
12.10
9.74
7.48
5.47
3.69
2.00
0.30
-1.50
-3.47
-5.70
-8.20
-10.85
-13.27
-14.86
-15.03
-13.44
-10.20
-5.77
-0.83
4.00
8.32
11.96
14.90
17.14
18.70
19.60
19.87
19.58
18.72
17.32
15.36
12.95
10.30
7.72
5.47
3.67
2.26
1.03
-0.22
-1.60
-3.09
-4.56
-5.89
-7.01
-7.98
-8.92
-10.02
-11.38
-13.05
-14.96
-16.96
-18.87
-20.59
-22.13
-23.62
-25.34
-27.60
-30.60
-34.27
-38.13
-41.39
-43.03
-42.20
-38.47
-32.00
-23.50
-14.03
-4.60
4.05
11.59
18.05
23.68
28.86
33.92
39.02
44.04
48.49
51.59
52.51
50.74
46.30
39.84
32.39
24.99
18.36
12.76
8.09
4.10
0.61
-2.38
-4.81
-6.55
-7.50
-7.64
-7.03
-5.87
-4.53
-3.40
-2.77
-2.77
-3.22
-3.89
-4.59
-5.29
-6.09
-7.17
-8.71
-10.90
-14.09
-18.65
-24.80
-32.35
-40.41
-47.53
-52.08
-52.81
-49.27
-42.07
-32.52
-22.27
-12.76
-4.89
1.11
5.56
9.03
12.01
14.71
16.94
18.34
18.61
17.79
16.30
14.82
13.98
14.10
15.20
17.08
19.50
22.28
25.25
28.13
30.45
31.63
31.19
29.00
25.38
21.03
16.76
13.21
10.65
9.00
7.91
7.00
5.98
4.71
3.10
1.05
-1.57
-4.85
-8.82
-13.31
-18.00
-22.31
-25.54
-26.81
-25.26
-20.22
-11.52
0.42
14.65
29.87
44.87
58.86
71.49
82.83
93.12
102.62
111.53
120.03
128.26
136.20
143.55
149.65
153.60
154.49
151.76
145.37
135.81
124.05
111.16
98.07
85.37
73.17
61.18
48.85
35.63
21.25
5.85
-9.97
-25.36
-39.47
-51.79
-62.19
-70.87
-78.20
-84.53
-90.06
-94.85
-98.81
-101.79
-103.55
-103.87
-102.62
-99.87
-96.03
-91.68
-87.49
-83.98
-81.39
-79.69
-78.67
-78.15
-78.02
-78.27
-78.94
-79.99
-81.38
-83.06
-85.11
-87.71
-91.07
-95.17
-99.64
-103.67
-106.20
-106.26
-103.35
-97.63
-89.84
-81.01
-72.06
-63.52
-55.57
-48.24
-41.62
-35.98
-31.68
-28.95
-27.79
-27.97
-29.28
-31.66
-35.15
-39.65
-44.67
-49.26
-52.27
-52.85
-50.75
-46.46
-40.92
-35.04
-29.40
-24.06
-18.73
-12.86
-5.94
2.43
12.43
23.90
36.37
49.10
61.22
72.00
80.98
87.94
92.87
95.83
96.94
96.37
94.41
91.41
87.75
83.65
79.16
74.21
68.72
62.72
56.44
50.22
44.35
38.96
33.91
28.88
23.50
17.55
11.18
5.00
-0.08
-3.18
-3.80
-2.09
1.25
5.20
8.82
11.54
13.24
14.06
14.22
13.88
13.12
12.04
10.81
9.59
8.51
7.51
6.45
5.23
3.84
2.43
1.27
0.61
0.65
1.40
2.70
4.25
5.71
6.87
7.67
8.30
9.03
10.04
11.33
12.59
13.35
13.11
11.55
8.62
4.65
0.24
-3.83
-6.74
-7.83
-6.66
-3.26
1.93
8.07
14.11
19.04
22.14
23.13
22.18
19.80
16.56
12.98
9.41
6.04
3.05
0.60
-1.22
-2.51
-3.52
-4.57
-5.87
-7.32
-8.63
-9.38
-9.35
-8.60
-7.52
-6.60
-6.28
-6.84
-8.29
-10.42
-12.89
-15.21
-16.94
-17.80
-17.75
-17.07
-16.26
-15.77
-15.92
-16.69
-17.78
-18.75
-19.20
-18.88
-17.75
-15.97
-13.74
-11.35
-9.09
-7.25
-6.13
-5.88
-6.51
-7.69
-8.91
-9.61
-9.44
-8.43
-6.95
-5.45
-4.28
-3.54
-3.15
-2.99
-3.02
-3.27
-3.79
-4.44
-4.99
-5.19
-4.97
-4.47
-4.03
-3.91
-4.22
-4.81
-5.41
-5.82
-6.05
-6.33
-6.93
-8.00
-9.49
-11.08
-12.36
-12.94
-12.65
-11.54
-9.81
-7.69
-5.41
-3.09
-0.84
1.26
3.17
4.82
6.20
7.29
8.09
8.55
8.66
8.40
7.84
7.11
6.33
5.55
4.77
3.90
2.91
1.82
0.69
-0.40
-1.43
-2.44
-3.49
-4.62
-5.86
-7.20
-8.65
-10.19
-11.80
-13.40
-14.90
-16.21
-17.28
-18.15
-18.90
-19.65
-20.50
-21.46
-22.50
-23.39
-23.84
-23.41
-21.78
-18.78
-14.59
-9.69
-4.76
-0.38
3.14
5.80
7.86
9.59
11.12
12.39
13.16
13.29
12.85
12.11
11.44
11.08
11.00
10.94
10.57
9.73
8.52
7.20
6.00
4.93
3.80
2.32
0.35
-2.03
-4.56
-6.94
-8.99
-10.67
-12.08
-13.34
-14.66
-16.23
-18.23
-20.65
-23.21
-25.23
-25.87
-24.35
-20.37
-14.24
-6.76
0.99
8.05
13.87
18.26
21.39
23.57
25.04
25.95
26.34
26.16
25.44
24.29
22.90
21.43
19.97
18.54
17.15
15.80
14.55
13.36
12.13
10.64
8.71
6.32
3.66
1.06
-1.23
-3.12
-4.82
-6.58
-8.60
-10.96
-13.65
-16.65
-19.89
-23.13
-25.85
-27.28
-26.65
-23.55
-18.15
-11.24
-3.89
2.89
8.49
12.76
15.83
17.89
19.13
19.69
19.76
19.55
19.21
18.78
18.17
17.31
16.20
14.98
13.88
13.01
12.37
11.74
10.87
9.57
7.81
5.70
3.42
1.13
-1.10
-3.19
-5.11
-6.86
-8.50
-10.25
-12.40
-15.22
-18.77
-22.69
-26.21
-28.34
-28.18
-25.31
-19.95
-12.88
-5.20
2.07
8.28
13.19
16.96
19.85
22.12
23.84
25.00
25.51
25.40
24.81
23.97
23.09
22.30
21.61
20.95
20.22
19.40
18.54
17.74
17.05
16.49
16.03
15.55
14.97
14.25
13.40
12.53
11.69
10.84
9.70
7.87
4.95
0.87
-4.02
-8.91
-12.81
-14.99
-15.19
-13.79
-11.56
-9.31
-7.58
-6.55
-6.15
-6.20
-6.61
-7.40
-8.58
-10.03
-11.50
-12.74
-13.59
-14.09
-14.45
-14.96
-15.73
-16.73
-17.73
-18.43
-18.60
-18.19
-17.36
-16.46
-15.94
-16.14
-17.17
-18.80
-20.56
-21.82
-22.19
-21.59
-20.36
-19.04
-18.18
-18.16
-19.10
-20.88
-23.17
-25.42
-26.91
-26.80
-24.46
-19.66
-12.77
-4.66
3.62
11.14
17.39
22.29
26.08
28.99
31.21
32.82
33.80
34.16
33.92
33.13
31.87
30.25
28.40
26.48
24.64
22.95
21.39
19.85
18.17
16.25
14.05
11.67
9.23
6.91
4.74
2.69
0.66
-1.42
-3.56
-5.65
-7.53
-9.12
-10.45
-11.67
-13.00
-14.60
-16.62
-19.09
-21.97
-25.04
-27.88
-29.83
-30.18
-28.37
-24.26
-18.31
-11.41
-4.64
1.19
5.75
9.22
12.05
14.62
17.11
19.36
21.09
22.02
22.04
21.24
19.86
18.23
16.67
15.37
14.41
13.70
13.09
12.39
11.49
10.39
9.18
7.95
6.72
5.42
3.96
2.28
0.39
-1.63
-3.64
-5.56
-7.35
-9.02
-10.65
-12.31
-14.06
-16.01
-18.25
-20.89
-23.94
-27.20
-30.22
-32.33
-32.82
-31.16
-27.28
-21.61
-14.92
-8.10
-1.88
3.39
7.67
11.11
13.90
16.07
17.63
18.52
18.74
18.43
17.77
16.98
16.19
15.45
14.74
14.01
13.26
12.51
11.75
10.94
9.93
8.56
6.71
4.41
1.81
-0.78
-3.07
-4.85
-6.10
-6.99
-7.81
-8.89
-10.48
-12.70
-15.49
-18.57
-21.49
-23.65
-24.43
-23.36
-20.22
-15.16
-8.73
-1.69
5.10
10.93
15.42
18.52
20.52
21.77
22.55
22.97
22.95
22.37
21.21
19.69
18.10
16.74
15.70
14.80
13.78
12.41
10.74
8.99
7.45
6.21
5.12
3.86
2.17
-0.03
-2.52
-4.94
-6.99
-8.51
-9.56
-10.30
-10.92
-11.61
-12.62
-14.19
-16.50
-19.52
-22.83
-25.71
-27.20
-26.56
-23.47
-18.25
-11.72
-4.90
1.34
6.51
10.49
13.49
15.83
17.77
19.44
20.82
21.79
22.24
22.08
21.39
20.38
19.34
18.51
17.96
17.59
17.13
16.38
15.26
13.86
12.36
10.94
9.68
8.60
7.68
6.93
6.37
5.93
5.40
4.48
2.89
0.60
-2.15
-4.92
-7.28
-9.05
-10.33
-11.43
-12.64
-14.10
-15.70
-17.17
-18.18
-18.45
-17.82
-16.25
-13.88
-11.01
-8.01
-5.24
-2.91
-1.07
0.34
1.37
1.92
1.82
0.90
-0.90
-3.39
-6.25
-9.07
-11.51
-13.32
-14.37
-14.60
-13.96
-12.49
-10.27
-7.58
-4.83
-2.50
-1.00
-0.51
-0.90
-1.80
-2.74
-3.32
-3.34
-2.86
-2.15
-1.54
-1.30
-1.53
-2.17
-2.99
-3.72
-4.17
-4.30
-4.27
-4.38
-4.99
-6.34
-8.45
-11.02
-13.47
-15.03
-14.99
-12.97
-9.12
-4.07
1.22
5.86
9.30
11.49
12.76
13.51
14.02
14.40
14.64
14.72
14.71
14.72
14.85
15.11
15.47
15.83
16.09
16.09
15.73
14.98
13.88
12.58
11.21
9.85
8.48
7.03
5.42
3.70
2.03
0.53
-0.84
-2.26
-3.99
-6.19
-8.82
-11.64
-14.36
-16.69
-18.49
-19.69
-20.20
-19.90
-18.65
-16.42
-13.42
-10.05
-6.84
-4.18
-2.23
-0.88
0.10
0.84
1.34
1.49
1.21
0.60
-0.09
-0.55
-0.63
-0.41
-0.13
-0.07
-0.36
-0.92
-1.53
-1.99
-2.21
-2.26
-2.34
-2.71
-3.56
-4.96
-6.79
-8.71
-10.34
-11.34
-11.65
-11.52
-11.49
-12.16
-13.90
-16.63
-19.77
-22.42
-23.72
-23.10
-20.44
-16.08
-10.60
-4.62
1.33
6.86
11.67
15.54
18.34
20.04
20.83
20.97
20.78
20.52
20.32
20.25
20.27
20.35
20.41
20.34
19.98
19.25
18.17
16.94
15.87
15.17
14.86
14.69
14.27
13.32
11.76
9.83
7.87
6.20
4.91
3.90
2.94
1.83
0.42
-1.35
-3.52
-6.13
-9.10
-12.20
-14.96
-16.81
-17.28
-16.18
-13.72
-10.44
-6.98
-3.85
-1.31
0.66
2.19
3.33
4.08
4.36
4.13
3.54
2.83
2.28
2.10
2.31
2.74
3.13
3.23
2.89
2.16
1.26
0.45
-0.04
-0.18
-0.13
-0.16
-0.56
-1.48
-2.85
-4.44
-6.05
-7.56
-8.98
-10.36
-11.65
-12.74
-13.56
-14.21
-14.99
-16.30
-18.31
-20.83
-23.26
-24.74
-24.59
-22.52
-18.75
-13.85
-8.52
-3.31
1.43
5.52
8.87
11.36
12.89
13.46
13.18
12.32
11.23
10.17
9.30
8.59
7.92
7.18
6.32
5.32
4.23
2.99
1.58
-0.03
-1.81
-3.66
-5.49
-7.25
-8.94
-10.60
-12.23
-13.79
-15.22
-16.53
-17.85
-19.42
-21.44
-23.88
-26.40
-28.33
-28.92
-27.58
-24.14
-18.94
-12.74
-6.36
-0.46
4.63
8.92
12.57
15.67
18.17
19.92
20.78
20.71
19.89
18.62
17.23
15.94
14.82
13.80
12.71
11.42
9.88
8.18
6.45
4.82
3.34
1.92
0.35
-1.57
-3.91
-6.57
-9.28
-11.69
-13.60
-14.99
-16.08
-17.16
-18.52
-20.33
-22.66
-25.43
-28.47
-31.38
-33.53
-34.17
-32.65
-28.72
-22.69
-15.34
-7.65
-0.43
5.90
11.32
16.01
20.17
23.89
27.14
29.82
31.86
33.21
33.85
33.76
33.02
31.72
30.04
28.18
26.31
24.57
23.01
21.60
20.23
18.77
17.06
15.04
12.73
10.27
7.86
5.60
3.51
1.45
-0.77
-3.27
-6.02
-8.82
-11.41
-13.61
-15.47
-17.21
-19.20
-21.72
-24.86
-28.41
-31.92
-34.73
-36.13
-35.54
-32.65
-27.56
-20.80
-13.22
-5.69
1.12
6.93
11.79
15.93
19.50
22.47
24.66
25.93
26.28
25.95
25.28
24.53
23.77
22.88
21.63
19.91
17.76
15.40
13.16
11.30
9.88
8.79
7.73
6.37
4.49
2.08
-0.69
-3.48
-5.95
-7.94
-9.50
-10.93
-12.60
-14.80
-17.65
-21.10
-24.92
-28.75
-32.08
-34.24
-34.50
-32.33
-27.56
-20.60
-12.37
-3.98
3.58
9.78
14.67
18.68
22.30
25.85
29.29
32.40
34.96
36.93
38.49
39.93
41.44
43.02
44.56
45.94
47.19
48.49
50.03
51.83
53.66
55.06
55.58
54.88
52.82
49.42
44.72
38.85
32.01
24.57
17.02
9.83
3.28
-2.64
-8.14
-13.46
-18.64
-23.47
-27.62
-30.74
-32.66
-33.41
-33.16
-32.06
-30.30
-28.16
-26.02
-24.38
-23.68
-24.12
-25.49
-27.23
-28.62
-29.14
-28.65
-27.37
-25.77
-24.23
-22.92
-21.78
-20.67
-19.48
-18.23
-17.01
-15.78
-14.42
-12.74
-10.64
-8.27
-5.96
-4.12
-3.00
-2.59
-2.64
-2.84
-2.98
-3.03
-3.09
-3.23
-3.50
-3.86
-4.35
-5.07
-6.21
-7.87
-9.98
-12.22
-14.10
-15.13
-14.98
-13.52
-10.90
-7.37
-3.31
0.91
4.94
8.54
11.63
14.21
16.32
17.95
19.01
19.41
19.12
18.30
17.19
16.05
14.94
13.75
12.29
10.50
8.57
6.91
5.94
5.88
6.62
7.80
9.05
10.14
10.92
11.21
10.57
8.38
4.11
-2.21
-9.69
-16.75
-21.60
-22.88
-20.12
-13.82
-5.16
4.42
13.50
20.85
25.40
26.40
23.61
17.48
9.24
0.49
-7.19
-12.72
-15.77
-16.62
-15.92
-14.33
-12.40
-10.46
-8.78
-7.51
-6.73
-6.45
-6.56
-6.91
-7.36
-7.86
-8.42
-9.10
-9.94
-10.92
-12.00
-13.15
-14.38
-15.74
-17.36
-19.26
-21.41
-23.66
-25.81
-27.61
-28.82
-29.23
-28.66
-26.96
-24.07
-20.04
-15.04
-9.28
-3.09
3.26
9.47
15.31
20.50
24.81
27.95
29.76
30.19
29.39
27.69
25.46
23.12
20.91
18.93
17.12
15.34
13.57
11.83
10.21
8.77
7.47
6.11
4.44
2.23
-0.59
-3.99
-7.86
-12.05
-16.39
-20.62
-24.37
-27.20
-28.77
-29.02
-28.22
-26.97
-25.87
-25.35
-25.44
-25.88
-26.27
-26.26
-25.67
-24.51
-22.88
-20.91
-18.74
-16.49
-14.24
-12.03
-9.84
-7.59
-5.22
-2.68
-0.03
2.59
4.98
6.89
8.08
8.40
7.79
6.33
4.22
1.78
-0.66
-2.85
-4.75
-6.63
-8.91
-12.09
-16.40
-21.64
-27.00
-31.31
-33.31
-32.13
-27.63
-20.38
-11.48
-2.17
6.57
14.21
20.64
25.97
30.30
33.61
35.78
36.73
36.55
35.50
33.94
32.29
30.81
29.65
28.81
28.16
27.49
26.56
25.18
23.22
20.68
17.65
14.27
10.66
6.92
3.07
-0.91
-5.04
-9.40
-14.15
-19.53
-25.77
-32.85
-40.33
-47.29
-52.47
-54.68
-53.15
-47.90
-39.74
-29.94
-19.82
-10.32
-1.84
5.71
12.63
19.13
25.16
30.46
34.70
37.62
39.19
39.63
39.29
38.52
37.60
36.65
35.71
34.82
34.05
33.48
33.15
33.04
33.03
33.02
33.01
33.11
33.51
34.33
35.56
37.01
38.38
39.28
39.38
38.39
36.11
32.40
27.33
21.19
14.51
7.95
2.20
-2.25
-5.14
-6.50
-6.60
-5.92
-4.97
-4.20
-3.88
-3.97
-4.22
-4.35
-4.26
-4.16
-4.49
-5.76
-8.22
-11.66
-15.50
-18.87
-21.02
-21.50
-20.32
-17.89
-14.89
-12.08
-10.06
-9.23
-9.67
-11.20
-13.42
-15.84
-17.94
-19.25
-19.51
-18.74
-17.39
-16.22
-16.08
-17.63
-20.90
-25.20
-29.25
-31.51
-30.75
-26.48
-19.11
-9.83
-0.19
8.38
14.93
19.17
21.27
21.65
20.68
18.53
15.26
11.05
6.36
1.96
-1.35
-3.04
-3.16
-2.33
-1.47
-1.30
-2.09
-3.57
-5.21
-6.63
-7.75
-8.84
-10.24
-12.08
-14.28
-16.60
-18.92
-21.34
-24.12
-27.34
-30.75
-33.62
-34.97
-33.94
-30.16
-23.85
-15.73
-6.83
1.90
9.74
16.34
21.61
25.67
28.71
30.93
32.47
33.40
33.68
33.23
32.00
30.04
27.52
24.75
22.06
19.66
17.61
15.76
13.89
11.78
9.24
6.16
2.47
-1.81
-6.60
-11.69
-16.78
-21.59
-26.08
-30.48
-35.23
-40.69
-46.81
-52.89
-57.81
-60.34
-59.74
-56.10
-50.30
-43.65
-37.26
-31.62
-26.45
-21.01
-14.51
-6.56
2.71
12.65
22.35
30.84
37.22
40.74
41.00
38.07
32.64
25.93
19.40
14.23
10.99
9.51
9.05
8.78
8.08
6.76
4.90
2.64
0.01
-3.09
-6.77
-11.05
-15.79
-20.76
-25.69
-30.21
-33.88
-36.13
-36.36
-34.16
-29.42
-22.51
-14.07
-4.90
4.35
13.22
21.41
28.68
34.71
39.16
41.79
42.60
41.98
40.50
38.81
37.32
36.07
34.78
33.03
30.45
26.94
22.66
17.89
12.91
7.83
2.55
-3.10
-9.28
-16.05
-23.30
-30.87
-38.62
-46.42
-54.21
-61.96
-69.61
-77.14
-84.54
-91.86
-99.07
-105.91
-111.76
-115.68
-116.59
-113.67
-106.63
-95.78
-81.84
-65.67
-47.98
-29.25
-9.87
9.77
29.13
47.57
64.45
79.25
91.62
101.41
108.66
113.53
116.27
117.12
116.30
113.92
110.14
105.20
99.49
93.41
87.22
80.96
74.41
67.27
59.38
50.92
42.39
34.38
27.30
21.21
15.75
10.41
4.69
-1.71
-8.78
-16.28
-23.75
-30.51
-35.73
-38.54
-38.29
-34.80
-28.50
-20.34
-11.49
-2.97
4.64
11.21
16.82
21.54
25.28
27.87
29.24
29.55
29.16
28.50
27.82
27.14
26.29
25.06
23.38
21.41
19.38
17.43
15.50
13.35
10.75
7.63
4.16
0.63
-2.62
-5.42
-7.81
-10.04
-12.46
-15.43
-19.19
-23.81
-29.01
-34.11
-38.18
-40.14
-39.18
-35.04
-28.16
-19.55
-10.52
-2.19
4.78
10.27
14.54
17.92
20.57
22.39
23.21
22.89
21.57
19.62
17.57
15.91
14.94
14.68
14.90
15.27
15.42
15.03
13.86
11.83
8.95
5.43
1.59
-2.18
-5.58
-8.46
-10.98
-13.55
-16.73
-20.97
-26.33
-32.34
-37.94
-41.78
-42.67
-40.00
-33.96
-25.49
-15.93
-6.48
2.08
9.51
15.85
21.15
25.34
28.27
29.93
30.63
31.01
31.75
33.33
35.78
38.76
41.75
44.31
46.23
47.54
48.38
48.91
49.22
49.31
49.23
49.01
48.68
48.16
47.16
45.21
41.79
36.58
29.64
21.43
12.78
4.62
-2.20
-7.10
-9.81
-10.32
-8.79
-5.46
-0.68
5.17
11.54
17.80
23.27
27.31
29.48
29.60
27.79
24.32
19.48
13.51
6.62
-0.83
-8.26
-14.94
-20.21
-23.79
-25.92
-27.30
-28.80
-31.12
-34.54
-38.93
-43.90
-49.02
-53.94
-58.41
-62.27
-65.40
-67.80
-69.56
-70.89
-71.98
-72.83
-73.16
-72.40
-69.86
-65.00
-57.62
-48.08
-37.19
-26.08
-15.92
-7.64
-1.76
1.58
2.62
1.84
-0.18
-2.82
-5.53
-7.90
-9.72
-11.03
-12.12
-13.35
-15.04
-17.39
-20.33
-23.63
-26.92
-29.85
-32.18
-33.86
-34.99
-35.79
-36.51
-37.36
-38.59
-40.42
-43.03
-46.30
-49.72
-52.29
-52.82
-50.32
-44.45
-35.77
-25.51
-15.15
-5.88
1.66
7.35
11.29
13.62
14.45
13.92
12.46
10.67
9.21
8.52
8.65
9.28
9.89
10.01
9.36
7.93
5.93
3.73
1.72
0.26
-0.50
-0.68
-0.63
-0.88
-1.95
-4.19
-7.61
-11.76
-15.77
-18.56
-19.02
-16.46
-10.75
-2.43
7.44
17.70
27.46
36.17
43.77
50.38
56.15
61.15
65.38
68.83
71.52
73.35
74.02
73.00
69.67
63.56
54.60
43.20
30.12
16.29
2.60
-10.31
-22.07
-32.54
-41.77
-49.86
-56.99
-63.34
-69.15
-74.61
-79.85
-84.79
-88.99
-91.70
-91.98
-89.09
-82.90
-73.95
-63.33
-52.33
-41.89
-32.52
-24.33
-17.35
-11.70
-7.58
-5.04
-3.76
-3.02
-1.95
0.08
3.14
6.72
10.03
12.37
13.51
13.69
13.41
13.12
12.96
12.73
12.04
10.55
8.01
4.34
-0.34
-5.70
-11.13
-15.73
-18.51
-18.69
-16.10
-11.25
-5.16
1.09
6.72
11.44
15.30
18.38
20.60
21.68
21.46
20.03
17.87
15.67
14.06
13.39
13.63
14.54
15.81
17.25
18.69
20.01
21.02
21.51
21.33
20.38
18.68
16.21
12.83
8.29
2.38
-4.88
-13.00
-20.97
-27.48
-31.23
-31.42
-27.95
-21.50
-13.21
-4.40
3.90
11.09
17.08
22.04
26.27
29.92
33.05
35.55
37.36
38.48
38.98
38.87
38.12
36.61
34.29
31.26
27.82
24.37
21.27
18.66
16.49
14.48
12.29
9.55
5.95
1.30
-4.49
-11.32
-18.91
-26.77
-34.19
-40.35
-44.39
-45.62
-43.60
-38.36
-30.40
-20.59
-9.95
0.59
10.37
19.02
26.35
32.30
36.82
39.90
41.59
42.04
41.51
40.26
38.56
36.67
34.76
32.85
30.87
28.65
26.02
22.87
19.25
15.29
11.21
7.11
3.08
-0.95
-5.14
-9.69
-14.85
-20.82
-27.69
-35.25
-42.85
-49.40
-53.60
-54.34
-51.05
-43.97
-34.06
-22.63
-10.94
0.15
10.24
19.20
26.93
33.20
37.71
40.30
41.03
40.32
38.76
36.95
35.32
34.10
33.26
32.61
31.85
30.68
28.83
26.13
22.54
18.13
13.11
7.71
2.17
-3.41
-9.00
-14.69
-20.65
-26.96
-33.46
-39.62
-44.48
-46.92
-45.94
-41.16
-32.99
-22.57
-11.37
-0.76
8.45
15.99
21.91
26.38
29.35
30.72
30.52
29.06
26.95
24.91
23.46
22.65
22.13
21.19
19.21
15.90
11.55
6.80
2.44
-1.01
-3.52
-5.58
-7.92
-11.21
-15.79
-21.67
-28.56
-35.94
-43.06
-48.95
-52.44
-52.51
-48.61
-41.00
-30.69
-19.17
-7.84
2.34
10.99
18.21
24.22
29.19
33.17
36.05
37.72
38.08
37.19
35.27
32.68
29.87
27.21
24.81
22.60
20.35
17.90
15.20
12.39
9.61
6.88
4.04
0.87
-2.88
-7.27
-12.32
-17.98
-24.15
-30.64
-36.98
-42.35
-45.72
-46.09
-42.89
-36.22
-26.83
-15.93
-4.75
5.69
14.86
22.62
29.06
34.28
38.24
40.87
42.12
42.11
41.18
39.81
38.41
37.16
35.98
34.62
32.88
30.77
28.50
26.38
24.59
23.11
21.63
19.77
17.19
13.74
9.50
4.75
-0.15
-4.88
-9.21
-13.11
-16.72
-20.34
-24.33
-29.04
-34.59
-40.81
-47.10
-52.45
-55.67
-55.64
-51.81
-44.35
-34.19
-22.65
-11.09
-0.41
8.97
17.01
23.85
29.54
34.00
37.16
38.99
39.67
39.44
38.59
37.28
35.62
33.66
31.52
29.39
27.51
25.98
24.69
23.44
21.92
20.00
17.71
15.18
12.57
9.90
7.06
3.92
0.49
-3.12
-6.69
-10.07
-13.28
-16.42
-19.62
-22.96
-26.44
-30.09
-34.03
-38.39
-43.08
-47.64
-51.21
-52.72
-51.35
-46.80
-39.47
-30.31
-20.45
-10.87
-2.17
5.41
11.83
17.09
21.12
23.83
25.20
25.38
24.64
23.37
21.90
20.46
19.16
18.03
17.05
16.19
15.44
14.69
13.79
12.58
10.92
8.79
6.24
3.38
0.35
-2.73
-5.74
-8.62
-11.38
-14.19
-17.36
-21.27
-26.07
-31.49
-36.79
-40.88
-42.64
-41.29
-36.72
-29.41
-20.35
-10.69
-1.43
6.78
13.70
19.39
24.06
27.90
30.93
33.04
34.14
34.22
33.49
32.30
30.99
29.75
28.59
27.40
26.09
24.63
23.10
21.59
20.16
18.77
17.32
15.76
14.09
12.32
10.46
8.39
5.97
3.07
-0.29
-3.92
-7.52
-10.82
-13.76
-16.50
-19.36
-22.64
-26.53
-30.98
-35.67
-40.00
-43.23
-44.55
-43.31
-39.25
-32.63
-24.22
-15.03
-5.99
2.36
9.83
16.54
22.59
28.01
32.66
36.34
39.01
40.73
41.71
42.20
42.43
42.61
42.86
43.24
43.74
44.32
44.90
45.42
45.87
46.28
46.70
47.20
47.90
48.92
50.30
51.83
52.98
52.85
50.30
44.26
34.08
19.81
2.20
-17.42
-37.53
-56.63
-73.64
-87.95
-99.45
-108.34
-114.99
-119.71
-122.62
-123.65
-122.62
-119.29
-113.53
-105.20
-94.19
-80.41
-63.92
-45.08
-24.70
-3.94
15.93
33.96
49.76
63.40
75.12
84.91
92.27
96.28
95.97
90.76
80.79
66.94
50.53
32.94
15.27
-1.78
-17.83
-32.57
-45.51
-55.94
-63.07
-66.39
-65.90
-62.29
-56.74
-50.53
-44.56
-39.17
-34.15
-29.11
-23.87
-18.64
-14.03
-10.72
-9.10
-9.08
-10.08
-11.39
-12.36
-12.71
-12.43
-11.63
-10.33
-8.45
-5.85
-2.56
1.13
4.79
7.95
10.28
11.76
12.55
12.89
13.07
13.26
13.55
13.90
14.17
14.16
13.63
12.50
10.84
8.95
7.27
6.15
5.79
6.14
6.95
7.93
8.89
9.82
10.86
12.15
13.72
15.43
17.06
18.39
19.25
19.51
18.99
17.40
14.37
9.77
3.76
-3.15
-10.17
-16.58
-21.89
-26.02
-29.18
-31.83
-34.47
-37.65
-41.86
-47.33
-53.88
-60.69
-66.27
-68.80
-66.56
-58.58
-44.97
-26.98
-6.64
13.84
32.59
48.51
61.29
71.14
78.59
84.07
87.93
90.28
91.18
90.66
88.94
86.41
83.69
81.43
80.20
80.31
81.76
84.33
87.60
90.92
93.46
94.21
92.26
87.03
78.64
67.99
56.44
45.33
35.57
27.39
20.54
14.62
9.22
4.03
-1.34
-7.38
-14.44
-22.53
-30.97
-38.56
-44.01
-46.55
-46.29
-44.32
-42.17
-41.23
-42.25
-45.17
-49.27
-53.58
-57.19
-59.47
-60.14
-59.26
-57.15
-54.30
-51.29
-48.56
-46.35
-44.62
-43.13
-41.60
-39.81
-37.80
-35.75
-34.06
-33.07
-33.03
-33.90
-35.35
-36.84
-37.71
-37.42
-35.70
-32.63
-28.63
-24.33
-20.44
-17.52
-15.92
-15.68
-16.62
-18.40
-20.66
-23.08
-25.40
-27.42
-29.00
-30.17
-31.13
-32.31
-34.13
-36.80
-40.15
-43.72
-46.86
-49.13
-50.52
-51.44
-52.58
-54.55
-57.74
-62.11
-67.37
-73.07
-78.73
-83.86
-87.97
-90.45
-90.82
-88.82
-84.51
-78.36
-71.10
-63.43
-55.97
-49.06
-42.84
-37.33
-32.45
-28.07
-24.00
-19.96
-15.66
-10.83
-5.29
0.94
7.73
14.85
22.07
29.22
36.11
42.59
48.37
53.14
56.58
58.48
58.83
57.84
55.92
53.52
50.98
48.48
46.03
43.60
41.10
38.61
36.24
34.13
32.35
30.83
29.32
27.54
25.27
22.47
19.33
16.16
13.28
10.92
9.14
7.83
6.77
5.74
4.63
3.43
2.23
1.15
0.29
-0.29
-0.54
-0.42
-0.01
0.52
0.87
0.76
0.05
-1.11
-2.35
-3.19
-3.33
-2.73
-1.61
-0.22
1.21
2.55
3.72
4.58
4.98
4.88
4.44
3.97
3.85
4.26
5.21
6.51
7.91
9.19
10.10
10.46
10.07
8.90
7.13
5.14
3.42
2.32
1.91
2.05
2.41
2.70
2.72
2.46
1.97
1.40
0.92
0.75
1.00
1.65
2.53
3.37
3.99
4.31
4.40
4.42
4.44
4.40
4.17
3.57
2.51
1.05
-0.66
-2.43
-4.15
-5.83
-7.57
-9.44
-11.38
-13.18
-14.55
-15.26
-15.26
-14.69
-13.79
-12.71
-11.42
-9.77
-7.64
-5.06
-2.20
0.63
3.24
5.55
7.68
9.78
11.99
14.37
16.85
19.24
21.29
22.75
23.41
23.24
22.31
20.90
19.34
17.92
16.83
16.09
15.65
15.41
15.28
15.17
15.01
14.71
14.11
13.04
11.39
9.18
6.62
4.02
1.68
-0.25
-1.74
-2.86
-3.62
-3.94
-3.68
-2.85
-1.64
-0.43
0.40
0.71
0.68
0.69
1.10
2.00
3.15
4.18
4.80
4.94
4.80
4.63
4.72
5.28
6.42
8.16
10.38
12.81
15.03
16.66
17.50
17.69
17.59
17.66
18.15
19.00
19.78
19.90
18.89
16.52
12.95
8.61
4.10
-0.03
-3.45
-6.09
-8.09
-9.62
-10.77
-11.54
-11.81
-11.52
-10.70
-9.50
-8.13
-6.78
-5.63
-4.83
-4.56
-4.98
-6.18
-8.10
-10.56
-13.29
-16.00
-18.50
-20.68
-22.48
-23.87
-24.81
-25.30
-25.35
-25.05
-24.53
-24.03
-23.79
-24.04
-24.87
-26.13
-27.43
-28.20
-27.85
-25.94
-22.35
-17.28
-11.19
-4.69
1.62
7.29
12.03
15.78
18.58
20.52
21.65
22.01
21.65
20.76
19.69
18.86
18.57
18.97
19.93
21.13
22.21
22.85
22.85
22.17
20.89
19.23
17.37
15.45
13.39
10.88
7.57
3.19
-2.13
-7.87
-13.24
-17.38
-19.63
-19.62
-17.30
-12.94
-7.09
-0.62
5.41
10.02
12.56
12.97
11.74
9.70
7.60
5.87
4.57
3.49
2.37
0.99
-0.77
-3.03
-5.91
-9.45
-13.56
-17.96
-22.25
-26.02
-29.07
-31.43
-33.34
-35.12
-37.10
-39.54
-42.60
-46.33
-50.58
-54.89
-58.48
-60.39
-59.83
-56.45
-50.56
-43.02
-34.87
-26.92
-19.44
-12.31
-5.22
1.87
8.66
14.55
18.98
21.68
22.82
22.79
22.08
20.96
19.53
17.76
15.64
13.31
11.02
9.06
7.59
6.54
5.65
4.55
2.96
0.75
-2.11
-5.62
-9.89
-15.05
-21.11
-27.69
-33.97
-38.82
-41.06
-39.97
-35.40
-27.84
-18.20
-7.55
3.15
13.22
22.24
30.08
36.75
42.22
46.38
49.01
49.96
49.31
47.41
44.87
42.28
40.05
38.24
36.65
34.93
32.80
30.22
27.27
24.17
21.07
18.01
14.89
11.52
7.69
3.33
-1.54
-6.80
-12.25
-17.59
-22.38
-26.03
-27.83
-27.12
-23.54
-17.24
-8.92
0.42
9.73
18.19
25.29
30.79
34.53
36.38
36.32
34.50
31.42
27.76
24.25
21.38
19.19
17.36
15.37
12.81
9.54
5.74
1.77
-1.99
-5.29
-8.14
-10.70
-13.24
-16.07
-19.43
-23.45
-27.97
-32.50
-36.22
-38.17
-37.49
-33.78
-27.17
-18.36
-8.36
1.84
11.43
19.83
26.63
31.48
34.09
34.38
32.58
29.27
25.25
21.26
17.74
14.80
12.25
9.74
6.99
3.87
0.41
-3.24
-6.88
-10.35
-13.53
-16.48
-19.37
-22.55
-26.46
-31.48
-37.66
-44.59
-51.35
-56.71
-59.47
-58.79
-54.46
-46.87
-36.81
-25.24
-13.02
-0.89
10.60
21.00
29.90
37.02
42.18
45.38
46.74
46.55
45.23
43.21
40.86
38.35
35.64
32.54
28.90
24.73
20.27
15.80
11.51
7.44
3.40
-0.90
-5.80
-11.63
-18.61
-26.65
-35.21
-43.12
-48.89
-51.06
-48.75
-42.07
-32.00
-20.01
-7.51
4.56
15.81
26.13
35.40
43.27
49.24
52.85
53.95
52.79
49.96
46.19
42.16
38.32
34.76
31.34
27.79
23.85
19.43
14.60
9.64
4.85
0.47
-3.46
-7.13
-10.87
-15.09
-20.18
-26.30
-33.41
-41.08
-48.53
-54.64
-58.17
-58.05
-53.75
-45.48
-34.26
-21.61
-9.14
1.91
10.86
17.59
22.29
25.20
26.37
25.77
23.33
19.19
13.71
7.41
0.82
-5.74
-12.21
-18.77
-25.65
-32.94
-40.50
-47.98
-54.95
-61.12
-66.42
-71.04
-75.29
-79.43
-83.54
-87.53
-91.05
-93.55
-94.18
-91.88
-85.49
-74.09
-57.41
-36.07
-11.61
13.91
38.39
60.19
78.35
92.59
103.08
110.22
114.51
116.42
116.41
114.81
111.95
108.07
103.44
98.34
93.04
87.76
82.59
77.52
72.47
67.30
61.95
56.31
50.31
43.80
36.71
29.09
21.18
13.27
5.66
-1.53
-8.54
-15.79
-23.67
-32.14
-40.55
-47.67
-52.07
-52.55
-48.62
-40.65
-29.66
-17.11
-4.41
7.24
17.11
24.88
30.58
34.49
36.92
38.14
38.30
37.44
35.65
33.13
30.29
27.56
25.35
23.84
23.02
22.64
22.39
21.96
21.11
19.70
17.66
15.05
12.05
8.84
5.63
2.48
-0.68
-4.11
-8.15
-13.16
-19.28
-26.38
-33.85
-40.62
-45.40
-46.97
-44.61
-38.36
-29.09
-18.19
-7.12
3.05
11.76
18.96
24.77
29.31
32.57
34.45
34.97
34.32
32.85
30.98
29.08
27.38
25.96
24.79
23.79
22.83
21.79
20.47
18.71
16.39
13.51
10.20
6.66
3.09
-0.41
-3.86
-7.36
-11.00
-14.95
-19.33
-24.23
-29.55
-34.86
-39.32
-41.83
-41.44
-37.65
-30.76
-21.81
-12.07
-2.75
5.45
12.27
17.76
21.90
24.61
25.75
25.37
23.85
21.80
19.89
18.54
17.85
17.58
17.38
16.97
16.26
15.31
14.22
13.02
11.67
10.05
8.09
5.81
3.30
0.71
-1.88
-4.47
-7.13
-9.95
-13.03
-16.46
-20.39
-24.89
-29.83
-34.69
-38.59
-40.43
-39.37
-35.12
-28.19
-19.63
-10.75
-2.60
4.23
9.62
13.67
16.58
18.47
19.44
19.62
19.19
18.33
17.17
15.73
14.03
12.08
10.01
7.94
6.04
4.37
2.94
1.62
0.24
-1.32
-3.12
-5.12
-7.24
-9.35
-11.29
-12.99
-14.39
-15.54
-16.58
-17.76
-19.40
-21.79
-25.01
-28.83
-32.63
-35.47
-36.43
-34.81
-30.39
-23.61
-15.36
-6.83
0.93
7.20
11.81
15.03
17.26
18.81
19.73
19.89
19.11
17.45
15.23
12.89
10.85
9.17
7.71
6.19
4.43
2.51
0.72
-0.62
-1.30
-1.42
-1.37
-1.62
-2.61
-4.51
-7.17
-10.20
-13.10
-15.45
-17.11
-18.24
-19.20
-20.45
-22.35
-24.99
-28.14
-31.21
-33.39
-33.78
-31.81
-27.36
-20.84
-13.07
-4.98
2.67
9.42
15.01
19.31
22.15
23.44
23.19
21.65
19.25
16.51
13.87
11.65
10.00
8.92
8.30
7.91
7.43
6.61
5.36
3.79
2.13
0.70
-0.35
-1.05
-1.61
-2.28
-3.30
-4.75
-6.56
-8.56
-10.54
-12.36
-13.96
-15.44
-16.99
-18.76
-20.88
-23.33
-25.91
-28.21
-29.63
-29.55
-27.46
-23.25
-17.23
-10.15
-2.93
3.65
9.10
13.25
16.19
18.07
19.00
19.05
18.33
17.01
15.36
13.71
12.32
11.33
10.70
10.18
9.44
8.22
6.46
4.38
2.30
0.48
-1.05
-2.59
-4.48
-7.00
-10.05
-13.30
-16.25
-18.52
-20.02
-20.96
-21.72
-22.70
-24.22
-26.40
-29.18
-32.24
-34.97
-36.58
-36.20
-33.27
-27.71
-20.09
-11.45
-2.94
4.50
10.42
14.88
18.24
20.81
22.74
23.96
24.30
23.74
22.45
20.82
19.23
17.89
16.75
15.57
14.16
12.47
10.64
8.86
7.27
5.74
4.02
1.83
-0.95
-4.21
-7.68
-10.99
-13.83
-16.04
-17.61
-18.64
-19.37
-20.12
-21.26
-23.05
-25.42
-27.93
-29.80
-30.16
-28.29
-24.02
-17.75
-10.26
-2.55
4.55
10.52
15.17
18.52
20.71
21.92
22.27
21.88
20.82
19.15
16.92
14.23
11.31
8.47
6.00
4.12
2.87
2.13
1.71
1.41
1.04
0.47
-0.48
-1.91
-3.83
-6.08
-8.35
-10.26
-11.49
-11.98
-11.89
-11.62
-11.57
-12.09
-13.35
-15.30
-17.66
-19.86
-21.19
-20.91
-18.48
-13.89
-7.62
-0.69
5.79
10.90
14.26
16.02
16.67
16.73
16.49
15.96
15.02
13.68
12.06
10.44
9.02
7.87
6.84
5.77
4.53
3.17
1.79
0.48
-0.69
-1.79
-2.85
-3.92
-5.02
-6.20
-7.56
-9.15
-10.93
-12.79
-14.58
-16.27
-17.99
-19.85
-21.77
-23.28
-23.61
-22.00
-18.07
-12.15
-5.19
1.64
7.35
11.47
14.04
15.32
15.57
14.89
13.31
10.95
8.12
5.27
2.85
1.07
-0.08
-0.83
-1.49
-2.30
-3.38
-4.68
-6.02
-7.16
-7.87
-8.07
-7.86
-7.52
-7.43
-7.94
-9.24
-11.38
-14.14
-17.15
-19.92
-21.84
-22.31
-20.90
-17.48
-12.37
-6.26
-0.06
5.44
9.75
12.78
14.68
15.65
15.76
15.06
13.58
11.60
9.53
7.85
6.87
6.56
6.56
6.37
5.53
3.89
1.61
-0.92
-3.32
-5.36
-7.11
-8.92
-11.17
-14.18
-18.00
-22.40
-26.97
-31.18
-34.48
-36.28
-36.04
-33.45
-28.54
-21.84
-14.19
-6.55
0.33
6.01
10.32
13.22
14.71
14.86
13.88
12.18
10.30
8.73
7.72
7.20
6.89
6.41
5.40
3.68
1.24
-1.69
-4.78
-7.63
-9.97
-11.85
-13.62
-15.87
-19.21
-23.96
-29.94
-36.42
-42.30
-46.29
-47.46
-45.34
-40.14
-32.64
-23.83
-14.78
-6.24
1.32
7.63
12.56
16.03
18.03
18.65
18.10
16.72
14.82
12.65
10.37
8.07
5.71
3.20
0.43
-2.70
-6.14
-9.71
-13.12
-16.15
-18.74
-21.13
-23.72
-26.93
-31.04
-36.16
-42.17
-48.65
-54.92
-59.95
-62.60
-61.88
-57.33
-49.26
-38.63
-26.78
-14.92
-3.94
5.75
14.06
21.02
26.67
31.05
34.26
36.41
37.64
37.98
37.42
35.96
33.66
30.70
27.36
23.93
20.63
17.52
14.56
11.65
8.72
5.80
2.93
0.10
-2.82
-6.13
-10.15
-15.20
-21.44
-28.87
-37.18
-45.77
-53.68
-59.69
-62.54
-61.28
-55.62
-46.11
-33.99
-20.73
-7.70
4.27
14.87
24.10
32.12
38.98
44.67
49.17
52.43
54.45
55.24
54.84
53.27
50.74
47.57
44.19
40.95
38.01
35.30
32.51
29.31
25.42
20.76
15.53
10.03
4.63
-0.43
-5.09
-9.58
-14.34
-19.92
-26.81
-35.19
-44.74
-54.41
-62.64
-67.67
-68.06
-63.19
-53.43
-40.06
-24.79
-9.30
5.19
17.94
28.59
37.04
43.36
47.70
50.37
51.74
52.10
51.58
50.22
48.06
45.21
41.90
38.34
34.69
30.96
27.10
23.03
18.75
14.26
9.55
4.54
-0.78
-6.37
-12.16
-18.03
-24.04
-30.41
-37.58
-45.97
-55.72
-66.39
-76.85
-85.41
-90.26
-90.08
-84.49
-74.26
-60.93
-46.15
-31.20
-16.59
-2.31
11.75
25.36
37.88
48.41
56.23
61.04
63.14
63.19
62.01
60.34
58.66
57.20
55.97
54.92
53.95
53.05
52.20
51.29
50.04
48.02
44.81
40.15
34.09
27.00
19.42
11.89
4.76
-1.88
-8.18
-14.57
-21.57
-29.77
-39.61
-51.21
-64.08
-77.04
-88.25
-95.68
-97.62
-93.21
-82.74
-67.54
-49.52
-30.62
-12.31
4.61
19.96
33.73
45.91
56.33
64.70
70.83
74.76
76.79
77.34
76.92
75.89
74.50
72.80
70.80
68.46
65.86
63.18
60.67
58.48
56.48
54.23
51.12
46.66
40.66
33.47
25.69
17.97
10.73
4.03
-2.29
-8.60
-15.36
-23.12
-32.34
-43.25
-55.52
-67.99
-78.85
-86.09
-88.12
-84.30
-75.12
-61.82
-45.96
-28.96
-11.82
4.77
20.26
34.12
45.90
55.28
62.21
66.85
69.53
70.60
70.34
69.00
66.80
63.99
60.80
57.43
54.08
50.87
47.88
45.08
42.29
39.18
35.24
30.01
23.27
15.19
6.32
-2.55
-10.77
-17.98
-24.31
-30.26
-36.54
-43.83
-52.53
-62.62
-73.43
-83.63
-91.40
-94.83
-92.51
-83.98
-69.98
-52.25
-32.94
-14.05
3.01
17.55
29.40
38.70
45.58
50.24
52.90
53.88
53.61
52.45
50.75
48.67
46.28
43.62
40.80
37.94
35.13
32.34
29.34
25.81
21.47
16.18
10.06
3.35
-3.65
-10.78
-18.01
-25.49
-33.52
-42.45
-52.52
-63.68
-75.25
-85.78
-93.26
-95.64
-91.61
-81.08
-65.28
-46.29
-26.31
-7.03
10.58
26.16
39.56
50.67
59.33
65.50
69.38
71.34
71.87
71.38
70.13
68.25
65.81
62.94
59.82
56.64
53.54
50.57
47.51
44.02
39.66
34.08
27.21
19.29
10.81
2.42
-5.36
-12.38
-18.91
-25.61
-33.36
-42.82
-54.14
-66.64
-78.87
-88.84
-94.58
-94.69
-88.70
-77.22
-61.60
-43.56
-24.80
-6.72
9.75
24.00
35.79
45.07
51.99
56.83
59.92
61.61
62.18
61.81
60.53
58.35
55.30
51.56
47.49
43.61
40.33
37.81
35.75
33.52
30.32
25.58
19.17
11.36
2.77
-6.02
-14.56
-22.67
-30.48
-38.29
-46.59
-55.87
-66.33
-77.57
-88.37
-96.81
-100.77
-98.61
-89.84
-75.31
-56.92
-37.01
-17.66
-0.26
14.59
26.90
36.92
44.96
51.19
55.74
58.68
60.09
60.13
58.98
56.84
53.95
50.57
46.99
43.51
40.34
37.57
35.05
32.53
29.61
25.96
21.40
15.88
9.55
2.65
-4.60
-11.99
-19.47
-27.22
-35.57
-44.92
-55.40
-66.57
-77.31
-85.90
-90.51
-89.77
-83.21
-71.48
-56.08
-38.92
-21.75
-5.82
8.24
20.31
30.47
38.86
45.50
50.30
53.18
54.19
53.54
51.59
48.79
45.50
42.00
38.48
35.05
31.85
28.94
26.22
23.44
20.19
16.02
10.69
4.23
-2.97
-10.37
-17.50
-24.23
-30.83
-37.88
-45.99
-55.44
-65.89
-76.28
-84.99
-90.21
-90.44
-84.91
-73.81
-58.24
-39.96
-20.96
-2.95
12.93
26.18
36.80
45.02
51.09
55.22
57.56
58.41
58.10
57.05
55.58
53.79
51.64
49.05
46.00
42.60
39.04
35.48
31.93
28.24
24.12
19.26
13.44
6.63
-0.96
-8.92
-16.80
-24.21
-30.96
-37.17
-43.33
-50.08
-58.04
-67.38
-77.46
-86.81
-93.39
-95.25
-91.24
-81.37
-66.92
-49.86
-32.18
-15.45
-0.56
12.14
22.60
30.83
36.89
40.94
43.19
43.91
43.37
41.77
39.35
36.39
33.20
30.04
27.02
24.08
21.06
17.74
14.03
9.90
5.42
0.68
-4.32
-9.59
-15.20
-21.26
-27.94
-35.47
-44.11
-53.94
-64.59
-75.04
-83.65
-88.55
-88.20
-81.96
-70.41
-55.12
-38.13
-21.37
-6.17
6.81
17.37
25.48
31.15
34.41
35.45
34.63
32.45
29.38
25.70
21.50
16.77
11.51
5.89
0.16
-5.40
-10.68
-15.84
-21.28
-27.53
-35.00
-43.71
-53.27
-62.86
-71.54
-78.57
-83.56
-86.64
-88.24
-88.91
-88.99
-88.39
-86.46
-82.10
-74.01
-61.16
-43.26
-21.03
3.83
29.07
52.41
72.17
87.56
98.64
106.07
110.69
113.21
114.03
113.33
111.13
107.55
102.83
97.41
91.73
86.20
81.05
76.36
72.11
68.27
64.82
61.69
58.71
55.43
51.24
45.42
37.38
26.83
13.92
-0.94
-17.13
-34.09
-51.27
-67.98
-83.19
-95.41
-102.97
-104.50
-99.47
-88.47
-73.11
-55.48
-37.59
-20.84
-5.96
6.97
18.13
27.75
35.88
42.43
47.15
49.86
50.54
49.43
47.04
43.93
40.57
37.13
33.51
29.46
24.83
19.70
14.34
9.08
4.04
-0.87
-5.93
-11.47
-17.68
-24.67
-32.43
-40.89
-49.75
-58.33
-65.42
-69.46
-69.00
-63.22
-52.36
-37.65
-20.94
-4.13
11.42
24.97
36.34
45.58
52.73
57.71
60.42
60.91
59.49
56.76
53.42
50.05
46.93
43.96
40.83
37.20
32.91
28.06
23.00
18.12
13.73
9.85
6.24
2.45
-2.07
-7.79
-15.06
-23.89
-33.88
-44.21
-53.59
-60.50
-63.52
-61.73
-55.06
-44.36
-31.18
-17.29
-4.16
7.36
17.14
25.40
32.41
38.18
42.39
44.67
44.82
43.06
40.02
36.43
32.94
29.83
26.96
24.02
20.71
16.93
12.83
8.72
4.90
1.46
-1.79
-5.23
-9.40
-14.77
-21.60
-29.77
-38.80
-47.73
-55.33
-60.26
-61.42
-58.28
-51.01
-40.49
-28.07
-15.13
-2.84
8.07
17.20
24.37
29.48
32.37
32.98
31.42
28.08
23.65
18.91
14.52
10.85
7.79
4.90
1.66
-2.34
-7.08
-12.24
-17.36
-22.21
-26.93
-32.03
-38.09
-45.58
-54.60
-64.87
-75.73
-86.19
-94.98
-100.78
-102.40
-99.19
-91.23
-79.35
-64.98
-49.61
-34.50
-20.45
-7.84
3.12
12.25
19.27
23.89
26.06
26.05
24.49
22.16
19.75
17.61
15.67
13.62
11.24
8.55
5.84
3.54
1.94
0.99
0.34
-0.55
-2.24
-5.19
-9.76
-16.03
-23.73
-32.06
-39.68
-44.96
-46.48
-43.42
-35.94
-24.95
-11.83
2.03
15.60
28.20
39.43
48.99
56.59
62.01
65.16
66.13
65.23
62.91
59.73
56.20
52.70
49.39
46.22
43.04
39.78
36.54
33.61
31.34
29.92
29.19
28.63
27.42
24.82
20.41
14.33
7.42
1.05
-3.14
-3.65
0.49
9.41
22.35
37.82
53.94
68.89
81.25
90.29
95.94
98.66
99.15
98.12
96.16
93.74
91.27
89.07
87.33
85.94
84.43
82.15
78.50
73.24
66.60
59.11
51.32
43.46
35.37
26.57
16.54
4.93
-8.34
-22.92
-38.08
-52.55
-64.74
-72.91
-75.77
-72.87
-64.96
-53.73
-41.32
-29.63
-19.76
-11.94
-5.81
-0.85
3.25
6.50
8.66
9.40
8.43
5.59
0.84
-5.76
-13.96
-23.32
-33.14
-42.64
-51.04
-57.79
-62.68
-65.86
-67.86
-69.36
-71.11
-73.76
-77.73
-83.04
-89.20
-95.25
-99.93
-102.02
-100.73
-95.99
-88.42
-78.94
-68.51
-57.72
-46.75
-35.50
-23.90
-12.09
-0.55
10.05
18.93
25.58
29.83
31.92
32.48
32.29
32.01
32.00
32.23
32.42
32.15
31.12
29.20
26.47
23.06
19.02
14.30
8.65
1.77
-6.49
-15.97
-26.02
-35.64
-43.64
-49.00
-51.19
-50.31
-46.96
-42.01
-36.29
-30.43
-24.69
-19.06
-13.46
-7.79
-2.09
3.42
8.40
12.45
15.27
16.77
17.09
16.56
15.63
14.59
13.61
12.71
11.82
10.88
9.88
8.84
7.67
6.24
4.37
1.91
-1.22
-5.00
-9.38
-14.19
-19.10
-23.53
-26.65
-27.60
-25.82
-21.33
-14.78
-7.18
0.44
7.42
13.53
18.84
23.41
27.23
30.04
31.60
31.78
30.72
28.75
26.28
23.65
21.05
18.49
15.83
12.86
9.41
5.54
1.50
-2.34
-5.60
-8.20
-10.34
-12.52
-15.33
-19.14
-24.06
-29.81
-35.83
-41.33
-45.46
-47.47
-46.76
-43.16
-36.96
-28.96
-20.18
-11.67
-4.17
2.01
6.94
10.88
14.11
16.73
18.75
20.10
20.77
20.90
20.63
20.09
19.27
18.09
16.54
14.66
12.65
10.71
8.93
7.16
5.14
2.67
-0.30
-3.59
-6.87
-9.95
-12.78
-15.48
-18.29
-21.44
-25.15
-29.48
-34.24
-38.91
-42.58
-44.21
-42.92
-38.40
-31.05
-21.85
-12.01
-2.50
6.22
14.09
21.26
27.74
33.32
37.64
40.41
41.57
41.37
40.19
38.41
36.22
33.69
30.82
27.64
24.27
20.86
17.53
14.33
11.26
8.33
5.52
2.83
0.13
-2.78
-6.09
-9.95
-14.28
-18.78
-23.02
-26.61
-29.40
-31.49
-33.18
-34.81
-36.63
-38.81
-41.40
-44.38
-47.55
-50.43
-52.20
-51.94
-48.91
-42.91
-34.47
-24.60
-14.47
-5.00
3.38
10.55
16.54
21.26
24.52
26.22
26.46
25.66
24.34
22.96
21.76
20.72
19.70
18.58
17.37
16.19
15.16
14.38
13.83
13.38
12.80
11.93
10.62
8.83
6.58
3.96
1.12
-1.74
-4.40
-6.65
-8.36
-9.65
-10.78
-12.13
-14.03
-16.46
-19.08
-21.22
-22.20
-21.44
-18.76
-14.32
-8.58
-2.18
4.23
10.04
14.88
18.62
21.31
23.12
24.12
24.30
23.52
21.68
18.89
15.44
11.78
8.39
5.57
3.49
2.13
1.37
1.01
0.78
0.38
-0.42
-1.73
-3.50
-5.58
-7.74
-9.84
-11.84
-13.72
-15.56
-17.51
-19.74
-22.41
-25.56
-28.98
-32.01
-33.74
-33.23
-29.90
-23.81
-15.73
-6.86
1.64
8.99
14.88
19.46
22.89
25.21
26.30
25.98
24.31
21.56
18.25
14.88
11.72
8.78
5.84
2.71
-0.67
-4.15
-7.41
-10.15
-12.26
-13.82
-15.01
-16.01
-16.88
-17.52
-17.73
-17.34
-16.41
-15.14
-13.95
-13.28
-13.49
-14.81
-17.18
-20.17
-22.98
-24.59
-24.00
-20.63
-14.48
-6.23
3.00
12.01
19.86
26.00
30.33
32.97
34.19
34.28
33.54
32.23
30.54
28.56
26.24
23.55
20.55
17.40
14.33
11.54
9.11
7.00
5.14
3.51
2.09
0.82
-0.45
-1.95
-3.88
-6.28
-9.01
-11.79
-14.41
-16.83
-19.19
-21.72
-24.71
-28.32
-32.49
-36.93
-41.06
-44.08
-45.18
-43.79
-39.86
-33.90
-26.84
-19.68
-13.23
-7.88
-3.65
-0.39
2.03
3.64
4.42
4.39
3.71
2.68
1.57
0.57
-0.34
-1.34
-2.57
-4.07
-5.55
-6.56
-6.66
-5.69
-3.91
-1.94
-0.50
-0.13
-0.88
-2.43
-4.20
-5.73
-6.85
-7.68
-8.57
-9.83
-11.61
-13.80
-16.06
-17.91
-18.76
-17.98
-15.00
-9.47
-1.29
9.24
21.54
34.87
48.40
61.39
73.26
83.56
91.96
98.29
102.44
104.50
104.62
103.21
100.75
97.79
94.78
91.90
89.05
85.82
81.63
75.93
68.29
58.51
46.64
33.04
18.36
3.49
-10.63
-23.20
-33.80
-42.43
-49.49
-55.42
-60.49
-64.66
-67.59
-68.80
-67.99
-65.15
-60.63
-54.94
-48.57
-41.83
-34.86
-27.73
-20.59
-13.72
-7.44
-2.05
2.27
5.48
7.58
8.55
8.36
7.10
4.97
2.35
-0.34
-2.75
-4.67
-6.04
-6.94
-7.45
-7.73
-7.92
-8.14
-8.47
-8.93
-9.41
-9.72
-9.62
-8.90
-7.48
-5.43
-3.04
-0.62
1.51
3.19
4.42
5.35
6.16
7.03
8.02
9.07
10.02
10.58
10.53
9.67
7.98
5.68
3.10
0.65
-1.45
-3.17
-4.78
-6.67
-9.19
-12.51
-16.57
-21.13
-25.78
-30.13
-33.81
-36.58
-38.38
-39.26
-39.46
-39.26
-38.96
-38.76
-38.75
-38.92
-39.28
-39.81
-40.53
-41.39
-42.19
-42.67
-42.51
-41.50
-39.62
-37.06
-34.13
-31.14
-28.27
-25.56
-22.89
-20.19
-17.50
-15.02
-13.00
-11.66
-11.02
-10.91
-11.03
-11.06
-10.82
-10.35
-9.88
-9.72
-10.13
-11.09
-12.36
-13.50
-14.06
-13.76
-12.58
-10.86
-9.09
-7.76
-7.24
-7.60
-8.56
-9.55
-9.84
-8.76
-5.85
-1.05
5.22
12.28
19.32
25.67
30.92
34.94
37.78
39.54
40.30
40.09
39.00
37.21
34.96
32.53
30.10
27.70
25.21
22.42
19.24
15.70
12.06
8.59
5.44
2.60
-0.15
-2.98
-5.96
-8.91
-11.52
-13.56
-14.91
-15.52
-15.33
-14.12
-11.66
-7.78
-2.65
3.25
9.29
14.99
20.12
24.66
28.69
32.06
34.46
35.51
35.01
33.11
30.22
26.91
23.60
20.46
17.44
14.38
11.17
7.90
4.85
2.33
0.56
-0.49
-1.02
-1.49
-2.36
-3.92
-6.36
-9.72
-13.89
-18.58
-23.34
-27.50
-30.31
-31.11
-29.51
-25.60
-19.89
-13.12
-5.98
0.96
7.41
13.21
18.21
22.30
25.41
27.49
28.63
28.95
28.55
27.57
26.15
24.49
22.78
21.11
19.44
17.59
15.34
12.65
9.74
6.96
4.62
2.78
1.16
-0.72
-3.30
-6.86
-11.33
-16.34
-21.33
-25.63
-28.60
-29.77
-28.96
-26.38
-22.56
-18.17
-13.79
-9.73
-5.95
-2.25
1.53
5.31
8.73
11.38
12.98
13.60
13.54
13.20
12.83
12.36
11.48
9.85
7.25
3.76
-0.33
-4.66
-8.98
-13.14
-17.19
-21.15
-24.99
-28.66
-32.20
-35.77
-39.60
-43.77
-47.99
-51.58
-53.60
-53.19
-49.96
-44.06
-36.12
-26.99
-17.44
-8.01
0.91
8.95
15.76
20.92
24.17
25.52
25.24
23.79
21.71
19.41
17.12
14.96
12.91
10.87
8.72
6.35
3.71
0.82
-2.20
-5.21
-8.14
-11.05
-14.16
-17.74
-22.00
-26.94
-32.20
-37.04
-40.62
-42.10
-40.94
-37.06
-30.79
-22.76
-13.63
-3.96
5.81
15.28
23.97
31.24
36.45
39.26
39.75
38.49
36.35
34.17
32.48
31.33
30.45
29.35
27.63
25.12
21.84
18.04
13.97
9.86
5.79
1.70
-2.63
-7.50
-13.22
-19.95
-27.53
-35.31
-42.28
-47.23
-49.12
-47.48
-42.53
-35.11
-26.30
-17.09
-8.11
0.30
7.93
14.43
19.35
22.24
22.93
21.65
18.98
15.67
12.31
9.23
6.41
3.54
0.23
-3.77
-8.54
-13.85
-19.31
-24.51
-29.24
-33.58
-37.87
-42.56
-48.08
-54.65
-62.09
-69.82
-76.80
-81.65
-82.95
-79.59
-71.20
-58.35
-42.34
-24.82
-7.34
9.05
23.70
36.25
46.27
53.29
56.93
57.22
54.77
50.69
46.15
42.05
38.66
35.75
32.74
29.21
25.09
20.68
16.45
12.79
9.73
6.94
3.82
-0.20
-5.63
-12.70
-21.42
-31.51
-42.25
-52.40
-60.30
-64.17
-62.68
-55.44
-43.31
-28.10
-11.99
3.21
16.55
27.92
37.69
46.15
53.17
58.37
61.30
61.89
60.53
57.86
54.50
50.82
46.90
42.58
37.81
32.70
27.50
22.52
17.91
13.59
9.25
4.47
-1.16
-7.86
-15.73
-24.70
-34.69
-45.46
-56.52
-66.91
-75.23
-79.91
-79.65
-73.85
-62.93
-48.06
-30.91
-13.09
4.14
19.95
33.92
45.85
55.64
63.25
68.64
71.80
72.76
71.73
69.15
65.71
62.07
58.76
55.96
53.40
50.58
47.03
42.52
37.12
31.17
25.02
18.85
12.64
6.27
-0.44
-7.70
-15.76
-24.94
-35.49
-47.32
-59.65
-70.89
-78.99
-81.96
-78.62
-69.07
-54.59
-37.21
-18.96
-1.40
14.63
28.87
41.40
52.26
61.45
68.94
74.70
78.79
81.34
82.51
82.35
80.96
78.43
74.93
70.74
66.12
61.28
56.24
50.92
45.13
38.76
31.78
24.28
16.47
8.60
0.86
-6.57
-13.80
-21.18
-29.33
-38.75
-49.42
-60.39
-69.84
-75.45
-75.26
-68.44
-55.66
-38.87
-20.53
-2.88
12.72
25.76
36.41
45.04
51.96
57.24
60.83
62.64
62.66
60.98
57.88
53.79
49.31
45.01
41.36
38.47
36.11
33.80
31.02
27.35
22.67
17.03
10.67
3.86
-3.11
-10.04
-16.74
-23.16
-29.43
-35.93
-43.01
-50.80
-58.79
-65.84
-70.30
-70.60
-65.75
-55.69
-41.41
-24.55
-6.99
9.63
24.19
36.13
45.34
51.92
56.07
57.99
57.91
56.19
53.35
49.94
46.50
43.37
40.65
38.22
35.87
33.41
30.69
27.62
24.12
20.12
15.68
10.87
5.92
1.00
-3.81
-8.62
-13.73
-19.58
-26.56
-34.77
-43.73
-52.32
-58.94
-61.89
-59.95
-52.80
-41.21
-26.76
-11.35
3.31
16.11
26.51
34.42
39.92
43.09
44.06
43.07
40.58
37.18
33.52
30.22
27.58
25.59
23.94
22.16
19.84
16.81
13.22
9.42
5.76
2.36
-0.94
-4.48
-8.67
-13.80
-19.99
-27.18
-35.14
-43.36
-50.97
-56.75
-59.34
-57.67
-51.43
-41.21
-28.35
-14.48
-1.11
10.79
20.84
29.03
35.46
40.12
42.94
43.86
43.00
40.71
37.61
34.37
31.50
29.22
27.43
25.71
23.56
20.59
16.68
12.03
7.03
2.04
-2.81
-7.65
-12.80
-18.54
-25.04
-32.22
-39.91
-47.87
-55.74
-62.90
-68.41
-71.12
-69.90
-64.14
-53.95
-40.30
-24.74
-8.90
5.83
18.52
28.74
36.39
41.54
44.34
45.03
43.91
41.38
37.90
33.90
29.76
25.72
21.88
18.26
14.84
11.68
8.83
6.32
4.07
1.90
-0.45
-3.15
-6.20
-9.43
-12.62
-15.61
-18.46
-21.43
-24.97
-29.58
-35.55
-42.69
-50.19
-56.64
-60.36
-59.99
-54.87
-45.42
-32.82
-18.74
-4.68
8.30
19.70
29.38
37.35
43.55
47.83
50.12
50.43
49.02
46.24
42.54
38.38
34.14
30.10
26.43
23.19
20.29
17.53
14.60
11.18
7.05
2.15
-3.39
-9.31
-15.39
-21.46
-27.53
-33.66
-40.02
-46.66
-53.44
-59.87
-65.11
-68.02
-67.52
-62.99
-54.43
-42.66
-29.07
-15.21
-2.35
8.67
17.48
23.96
28.12
29.95
29.59
27.37
23.88
19.86
15.96
12.53
9.54
6.68
3.59
0.06
-3.82
-7.77
-11.46
-14.66
-17.31
-19.60
-21.83
-24.32
-27.39
-31.28
-36.08
-41.79
-48.12
-54.43
-59.77
-62.92
-62.81
-58.77
-50.84
-39.78
-26.85
-13.41
-0.54
11.10
21.27
29.88
36.88
42.08
45.25
46.29
45.33
42.83
39.44
35.89
32.74
30.17
28.01
25.83
23.15
19.70
15.41
10.40
4.90
-0.96
-7.08
-13.46
-20.14
-27.20
-34.79
-43.05
-52.02
-61.33
-70.18
-77.20
-80.79
-79.57
-72.86
-60.97
-45.24
-27.57
-9.89
6.35
20.36
31.96
41.15
47.88
51.97
53.29
52.00
48.67
44.18
39.46
35.11
31.27
27.71
24.02
19.94
15.43
10.70
6.05
1.75
-2.11
-5.65
-9.16
-12.99
-17.55
-23.18
-30.10
-38.36
-47.66
-57.23
-65.79
-71.79
-73.65
-70.36
-61.80
-48.81
-33.03
-16.37
-0.52
13.40
24.95
34.17
41.39
46.98
51.24
54.33
56.33
57.28
57.21
56.22
54.43
51.99
49.05
45.77
42.30
38.76
35.21
31.52
27.47
22.72
17.02
10.33
2.94
-4.62
-11.77
-18.17
-23.76
-28.93
-34.26
-40.39
-47.67
-55.96
-64.46
-71.76
-76.16
-76.14
-70.93
-60.75
-46.73
-30.62
-14.17
1.30
14.98
26.57
35.99
43.24
48.34
51.41
52.67
52.51
51.33
49.44
47.02
44.17
40.94
37.49
34.02
30.76
27.83
25.08
22.18
18.69
14.35
9.15
3.37
-2.53
-8.14
-13.30
-18.01
-22.44
-26.83
-31.49
-36.79
-43.02
-50.10
-57.32
-63.30
-66.25
-64.68
-57.95
-46.64
-32.36
-17.08
-2.54
10.23
20.88
29.55
36.45
41.67
45.16
46.83
46.70
44.97
42.06
38.53
34.91
31.59
28.73
26.23
23.81
21.23
18.33
15.14
11.68
7.98
3.98
-0.43
-5.28
-10.56
-16.15
-21.95
-28.05
-34.65
-41.96
-49.93
-57.98
-64.95
-69.29
-69.58
-64.98
-55.59
-42.44
-27.18
-11.52
3.25
16.42
27.84
37.60
45.77
52.25
56.84
59.47
60.31
59.74
58.32
56.55
54.68
52.72
50.54
47.97
44.92
41.45
37.66
33.64
29.43
25.05
20.53
15.96
11.49
7.30
3.53
0.20
-2.77
-5.50
-8.21
-11.19
-14.71
-18.93
-23.71
-28.42
-31.95
-32.85
-29.76
-21.88
-9.20
7.55
27.20
48.33
69.50
89.01
104.76
114.38
115.82
108.09
91.86
69.51
44.53
20.38
-0.47
-16.96
-29.37
-38.68
-45.82
-51.34
-55.31
-57.70
-58.58
-58.37
-57.74
-57.37
-57.70
-58.73
-60.17
-61.57
-62.57
-63.12
-63.50
-64.16
-65.62
-68.29
-72.42
-77.93
-84.40
-90.83
-95.79
-97.61
-94.90
-87.03
-74.43
-58.52
-41.26
-24.51
-9.55
3.07
13.40
21.66
28.06
32.63
35.41
36.55
36.37
35.25
33.52
31.37
28.85
26.00
22.90
19.64
16.28
12.84
9.31
5.69
2.06
-1.44
-4.71
-7.76
-10.71
-13.77
-17.13
-21.01
-25.66
-31.32
-38.04
-45.40
-52.31
-57.13
-58.12
-54.10
-44.95
-31.72
-16.26
-0.54
13.92
26.31
36.49
44.58
50.71
54.91
57.21
57.79
57.05
55.45
53.44
51.24
48.84
46.13
43.02
39.61
36.14
32.90
29.97
27.18
24.14
20.36
15.53
9.62
2.89
-4.18
-11.05
-17.35
-22.91
-27.85
-32.59
-37.79
-44.11
-51.90
-60.87
-70.00
-77.59
-81.76
-81.06
-74.89
-63.70
-48.81
-31.95
-14.78
1.45
15.98
28.48
38.85
47.01
52.94
56.66
58.31
58.26
56.98
54.95
52.47
49.62
46.30
42.47
38.19
33.74
29.40
25.41
21.68
17.91
13.74
8.95
3.54
-2.22
-7.98
-13.45
-18.53
-23.33
-28.20
-33.63
-40.15
-48.05
-57.10
-66.33
-74.08
-78.36
-77.56
-70.96
-59.10
-43.54
-26.26
-9.06
6.89
21.11
33.45
43.87
52.19
58.28
62.11
64.04
64.62
64.40
63.67
62.43
60.45
57.55
53.77
49.44
45.05
40.98
37.34
33.89
30.12
25.55
19.97
13.50
6.60
-0.16
-6.35
-11.85
-16.83
-21.69
-26.89
-32.93
-40.17
-48.74
-58.25
-67.64
-75.28
-79.22
-77.95
-70.90
-58.69
-42.94
-25.71
-8.80
6.58
19.95
31.22
40.43
47.53
52.40
55.00
55.53
54.44
52.35
49.77
47.02
44.11
40.88
37.13
32.88
28.45
24.33
20.99
18.56
16.69
14.72
11.89
7.81
2.58
-3.15
-8.57
-13.05
-16.42
-19.05
-21.60
-24.82
-29.27
-35.21
-42.47
-50.42
-57.91
-63.38
-65.20
-62.17
-53.95
-41.29
-25.83
-9.53
5.87
19.26
30.16
38.46
44.23
47.59
48.76
48.18
46.57
44.71
43.17
42.08
41.13
39.76
37.50
34.26
30.36
26.34
22.68
19.65
17.08
14.60
11.77
8.27
4.03
-0.80
-5.90
-10.92
-15.53
-19.57
-23.09
-26.29
-29.57
-33.35
-37.92
-43.30
-49.07
-54.38
-58.03
-58.79
-55.83
-49.04
-39.17
-27.57
-15.81
-5.10
3.86
10.95
16.33
20.15
22.45
23.24
22.59
20.81
18.42
15.99
13.99
12.62
11.84
11.45
11.20
10.88
10.36
9.48
8.15
6.29
3.89
1.06
-1.99
-5.01
-7.83
-10.52
-13.38
-16.93
-21.74
-28.06
-35.64
-43.53
-50.18
-53.86
-53.09
-47.19
-36.48
-22.21
-6.19
9.76
24.19
36.29
45.91
53.29
58.78
62.65
65.05
66.11
66.13
65.58
65.00
64.79
64.99
65.50
66.18
67.16
68.70
70.90
73.22
74.37
72.60
66.38
55.05
39.20
20.48
0.95
-17.53
-33.73
-47.09
-57.59
-65.64
-71.90
-77.31
-82.77
-88.75
-94.87
-99.85
-101.83
-99.17
-91.14
-78.28
-62.30
-45.33
-29.27
-15.29
-3.73
5.61
13.11
19.01
23.39
26.16
27.30
26.92
25.39
23.27
21.19
19.67
18.89
18.62
18.37
17.54
15.80
13.10
9.76
6.18
2.73
-0.45
-3.37
-6.12
-8.83
-11.75
-15.25
-19.68
-25.14
-31.13
-36.39
-39.17
-37.82
-31.44
-20.35
-5.96
9.59
24.20
36.27
44.82
49.41
49.92
46.45
39.43
29.71
18.59
7.51
-2.26
-9.90
-15.17
-18.27
-19.67
-19.87
-19.37
-18.64
-18.11
-18.07
-18.58
-19.44
-20.26
-20.68
-20.48
-19.69
-18.55
-17.39
-16.59
-16.56
-17.62
-19.91
-23.24
-27.14
-30.93
-34.16
-36.75
-39.01
-41.39
-44.12
-46.87
-48.79
-48.77
-45.83
-39.54
-30.12
-18.47
-5.77
6.74
18.16
28.04
36.42
43.58
49.86
55.51
60.68
65.51
70.22
74.92
79.45
83.13
84.91
83.71
78.94
70.88
60.60
49.59
39.13
29.80
21.42
13.27
4.58
-5.05
-15.52
-26.20
-36.16
-44.46
-50.28
-53.14
-52.96
-50.06
-45.03
-38.60
-31.63
-25.02
-19.66
-16.36
-15.61
-17.41
-21.21
-26.04
-30.90
-35.14
-38.59
-41.56
-44.57
-48.01
-51.99
-56.34
-60.76
-64.97
-68.90
-72.62
-76.35
-80.37
-84.98
-90.32
-96.31
-102.42
-107.59
-110.26
-108.75
-101.76
-88.89
-70.96
-49.72
-27.36
-5.71
14.20
32.08
48.05
62.04
73.55
81.82
86.20
86.60
83.55
78.04
71.13
63.67
56.23
49.09
42.44
36.32
30.60
24.96
18.96
12.17
4.41
-4.17
-13.20
-22.33
-31.42
-40.67
-50.44
-60.86
-71.44
-80.87
-87.29
-88.77
-84.05
-73.05
-56.95
-37.73
-17.56
1.84
19.47
35.05
48.62
60.20
69.63
76.54
80.65
81.91
80.74
77.86
74.08
70.03
65.93
61.60
56.64
50.74
43.87
36.31
28.56
21.14
14.40
8.47
3.32
-1.26
-5.75
-10.91
-17.83
-27.58
-40.86
-57.43
-75.89
-93.86
-108.55
-117.66
-119.95
-115.58
-105.85
-92.58
-77.58
-62.20
-47.22
-32.93
-19.43
-6.80
4.79
15.01
23.51
29.90
34.08
36.09
36.25
35.03
32.96
30.52
27.98
25.43
22.89
20.32
17.70
15.07
12.39
9.58
6.52
3.06
-0.90
-5.48
-10.88
-17.42
-25.49
-35.21
-46.08
-56.84
-65.58
-70.23
-69.26
-62.20
-49.76
-33.57
-15.65
2.19
18.63
33.12
45.63
56.42
65.78
73.80
80.28
84.84
87.22
87.45
85.96
83.49
80.84
78.61
77.03
75.93
74.94
73.67
71.81
69.24
66.05
62.31
58.15
53.62
48.73
43.42
37.54
30.87
23.23
14.70
5.92
-1.74
-6.40
-6.19
-0.04
11.66
27.01
43.13
57.04
66.65
71.18
71.14
67.79
62.46
56.16
49.51
42.85
36.53
31.06
27.09
25.22
25.72
28.37
32.39
36.63
39.93
41.34
40.33
36.63
30.22
21.30
10.34
-1.81
-14.12
-25.70
-36.14
-45.57
-54.41
-62.78
-70.30
-76.01
-78.92
-78.48
-74.97
-69.37
-62.99
-57.03
-52.18
-48.62
-46.06
-43.90
-41.42
-37.90
-32.85
-26.13
-18.08
-9.45
-1.22
5.63
10.35
12.61
12.53
10.65
7.75
4.57
1.71
-0.57
-2.19
-3.18
-3.65
-3.70
-3.48
-3.24
-3.21
-3.65
-4.72
-6.45
-8.74
-11.18
-13.05
-13.42
-11.32
-6.13
2.13
12.74
24.48
35.99
46.24
54.72
61.43
66.68
70.77
73.98
76.33
77.82
78.39
77.96
76.52
73.99
70.25
65.09
58.34
49.91
40.08
29.47
19.05
9.82
2.50
-2.78
-6.55
-9.75
-13.48
-18.51
-25.10
-32.92
-41.19
-48.92
-55.08
-58.84
-59.63
-57.30
-52.01
-44.30
-34.91
-24.74
-14.66
-5.37
2.70
9.48
15.13
19.94
24.05
27.41
29.70
30.44
29.27
26.10
21.19
15.14
8.70
2.50
-3.01
-7.82
-12.19
-16.69
-21.95
-28.56
-36.86
-46.85
-58.19
-70.21
-82.04
-92.79
-101.63
-107.88
-111.07
-111.00
-107.70
-101.47
-92.83
-82.41
-70.78
-58.45
-45.79
-33.25
-21.42
-11.05
-2.90
2.55
5.45
6.48
6.68
6.98
7.91
9.47
11.26
12.82
13.78
14.02
13.58
12.61
11.18
9.34
7.10
4.39
1.16
-2.72
-7.36
-12.77
-18.68
-24.48
-29.27
-31.99
-31.76
-28.17
-21.42
-12.24
-1.67
9.23
19.55
28.73
36.41
42.44
46.79
49.49
50.62
50.31
48.61
45.61
41.46
36.45
31.01
25.63
20.74
16.52
12.91
9.68
6.62
3.61
0.60
-2.41
-5.60
-9.26
-13.75
-19.35
-26.14
-33.96
-42.41
-50.91
-58.74
-65.06
-68.95
-69.66
-66.70
-60.04
-50.13
-37.78
-24.01
-9.85
3.87
16.51
27.69
37.21
44.93
50.78
54.72
56.80
57.32
56.75
55.70
54.66
53.79
52.89
51.50
49.22
45.90
41.71
37.01
32.19
27.43
22.75
17.94
12.71
6.77
-0.13
-7.95
-16.27
-24.25
-30.72
-34.51
-34.77
-31.29
-24.51
-15.37
-4.93
5.79
16.09
25.44
33.41
39.60
43.67
45.44
44.96
42.57
38.81
34.24
29.35
24.49
19.89
15.63
11.73
8.19
4.92
1.91
-0.83
-3.24
-5.30
-7.17
-9.23
-11.97
-15.85
-21.07
-27.50
-34.61
-41.63
-47.64
-51.66
-52.91
-50.89
-45.63
-37.62
-27.86
-17.51
-7.63
1.07
8.30
14.11
18.65
22.04
24.30
25.40
25.34
24.35
22.76
21.05
19.60
18.64
18.11
17.76
17.31
16.53
15.42
14.13
12.80
11.52
10.24
8.82
6.97
4.41
0.85
-3.86
-9.64
-15.99
-22.06
-26.73
-28.99
-28.16
-24.14
-17.38
-8.70
0.90
10.47
19.27
26.85
33.06
37.99
41.87
44.85
46.88
47.70
46.92
44.30
39.83
33.83
26.87
19.62
12.68
6.56
1.57
-2.15
-4.76
-6.64
-8.24
-9.82
-11.28
-12.14
-11.83
-9.99
-6.83
-3.00
0.67
3.66
6.14
8.94
13.29
20.28
30.46
43.54
58.52
74.01
88.63
101.31
111.40
118.55
122.62
123.56
121.51
116.91
110.55
103.38
96.06
88.62
80.38
70.37
57.90
43.13
26.95
10.65
-4.82
-19.25
-33.13
-47.04
-61.18
-74.99
-87.30
-96.88
-103.03
-105.80
-105.87
-104.13
-101.24
-97.38
-92.31
-85.70
-77.47
-68.06
-58.37
-49.47
-42.22
-36.91
-33.34
-30.84
-28.77
-26.69
-24.43
-21.99
-19.39
-16.55
-13.42
-10.17
-7.29
-5.56
-5.78
-8.42
-13.33
-19.67
-26.09
-31.18
-33.89
-33.84
-31.36
-27.37
-22.98
-19.25
-16.91
-16.33
-17.55
-20.45
-24.75
-30.10
-36.15
-42.66
-49.58
-56.85
-64.22
-71.00
-76.02
-77.93
-75.71
-69.28
-59.81
-49.36
-40.15
-33.77
-30.44
-29.18
-28.42
-26.77
-23.67
-19.39
-14.68
-10.28
-6.53
-3.52
-1.28
0.01
0.02
-1.48
-4.34
-7.88
-11.14
-13.37
-14.22
-13.90
-13.04
-12.25
-11.87
-11.71
-11.25
-9.78
-6.73
-1.86
4.65
12.40
20.88
29.51
37.72
44.85
50.17
53.01
52.97
50.13
44.99
38.41
31.30
24.40
18.22
13.07
9.18
6.80
6.12
7.18
9.86
13.82
18.63
23.96
29.57
35.21
40.41
44.29
45.60
43.07
36.06
24.93
11.17
-2.97
-15.18
-23.74
-27.90
-27.83
-24.31
-18.40
-11.15
-3.55
3.45
8.94
12.17
12.69
10.60
6.63
2.01
-1.86
-3.91
-3.84
-2.17
-0.00
1.60
2.12
1.86
1.61
2.12
3.52
5.13
5.79
4.52
0.97
-4.40
-10.64
-16.81
-22.41
-27.49
-32.43
-37.53
-42.75
-47.56
-51.17
-52.79
-51.92
-48.51
-43.01
-36.26
-29.30
-23.16
-18.53
-15.61
-14.12
-13.39
-12.73
-11.70
-10.24
-8.57
-7.04
-5.91
-5.37
-5.61
-6.98
-9.93
-14.90
-22.04
-31.05
-41.25
-51.72
-61.63
-70.32
-77.34
-82.23
-84.53
-83.78
-79.82
-72.91
-63.67
-52.93
-41.28
-28.94
-15.75
-1.61
13.29
28.19
42.06
53.88
63.15
69.95
74.76
78.19
80.66
82.34
83.36
83.95
84.64
85.92
88.06
90.81
93.33
94.54
93.41
89.40
82.51
73.20
62.11
49.89
37.05
24.02
11.26
-0.49
-10.22
-16.77
-19.20
-17.25
-11.55
-3.70
4.24
10.18
12.73
11.41
6.58
-1.02
-10.58
-21.43
-33.01
-44.81
-56.10
-66.09
-73.78
-77.87
-76.93
-69.87
-56.76
-39.50
-21.86
-8.74
-4.54
-11.36
-27.87
-49.50
-69.83
-82.91
-85.30
-76.93
-60.82
-41.67
-23.93
-10.53
-2.18
2.24
4.82
7.65
12.27
19.57
29.86
42.88
57.16
69.88
77.47
76.91
67.41
51.41
34.11
21.47
17.78
23.88
37.08
52.57
65.58
72.94
73.68
68.50
58.98
47.06
34.90
24.83
18.88
18.00
21.50
27.06
31.61
32.60
28.91
21.35
11.98
3.29
-2.81
-5.39
-4.48
-0.75
4.82
11.10
16.97
21.28
23.05
21.60
16.73
8.69
-1.81
-13.81
-26.16
-37.72
-47.32
-53.83
-56.32
-54.27
-47.75
-37.47
-24.73
-11.05
2.15
13.86
23.54
31.16
36.98
41.34
44.55
46.86
48.55
50.05
52.02
55.30
60.49
67.49
75.32
82.23
86.34
86.42
82.42
75.40
67.01
58.76
51.48
45.26
39.73
34.37
28.71
22.35
14.93
6.34
-3.13
-12.55
-20.44
-25.08
-25.07
-19.74
-9.32
5.12
22.03
39.83
57.11
72.66
85.44
94.51
99.18
99.16
94.73
86.63
75.83
63.24
49.43
34.68
19.17
3.29
-12.26
-26.55
-38.76
-48.47
-55.84
-61.53
-66.42
-71.20
-76.12
-80.73
-84.09
-85.07
-82.91
-77.54
-69.72
-60.72
-51.83
-43.86
-36.97
-30.79
-24.82
-18.80
-12.73
-6.86
-1.51
2.97
6.13
7.33
5.82
1.11
-6.67
-16.61
-27.21
-36.83
-44.32
-49.32
-52.21
-53.81
-54.87
-55.84
-56.88
-58.00
-59.27
-60.78
-62.45
-63.92
-64.55
-63.68
-61.00
-56.74
-51.57
-46.31
-41.52
-37.33
-33.55
-30.00
-26.70
-23.96
-22.10
-21.24
-21.06
-21.03
-20.58
-19.38
-17.47
-15.20
-13.00
-11.26
-10.19
-9.86
-10.14
-10.83
-11.71
-12.67
-13.71
-14.82
-15.85
-16.43
-15.97
-13.94
-10.09
-4.66
1.67
7.97
13.34
17.19
19.31
19.82
19.12
17.74
16.36
15.63
16.01
17.71
20.55
24.08
27.74
30.99
33.49
35.14
36.11
36.73
37.51
39.04
41.87
46.31
52.30
59.35
66.57
72.86
77.27
79.20
78.61
75.91
71.72
66.59
60.90
54.79
48.35
41.68
34.89
28.05
21.00
13.51
5.30
-3.74
-13.38
-23.01
-31.86
-39.43
-45.67
-51.19
-56.91
-63.65
-71.69
-80.55
-89.23
-96.74
-102.52
-106.51
-108.83
-109.40
-107.68
-102.91
-94.64
-83.19
-69.82
-56.33
-44.40
-35.03
-28.36
-23.79
-20.30
-16.80
-12.29
-5.83
3.35
15.77
31.26
48.72
65.97
80.10
88.26
88.61
80.90
66.70
48.74
29.81
11.97
-3.95
-18.07
-30.68
-41.57
-49.76
-53.85
-52.80
-46.57
-36.22
-23.51
-10.05
3.57
17.94
34.31
53.60
75.44
97.76
117.51
131.90
139.71
141.89
141.16
140.71
142.87
148.18
155.47
162.72
168.16
170.97
171.40
170.11
167.44
163.05
155.96
145.07
129.72
110.05
86.84
61.22
34.23
6.75
-20.51
-46.89
-71.70
-94.24
-113.91
-130.31
-143.20
-152.64
-158.94
-162.80
-165.10
-166.69
-168.09
-169.27
-169.84
-169.30
-167.48
-164.71
-161.58
-158.67
-156.20
-153.96
-151.54
-148.46
-144.41
-139.29
-133.10
-126.04
-118.42
-110.70
-103.44
-97.03
-91.57
-86.77
-82.07
-76.90
-70.94
-64.27
-57.18
-50.05
-43.13
-36.51
-30.15
-23.96
-17.85
-11.73
-5.49
0.93
7.51
14.10
20.35
25.88
30.31
33.27
34.52
33.81
30.97
25.98
19.09
10.85
2.19
-5.63
-11.35
-13.90
-12.68
-7.72
0.24
10.02
20.18
29.34
36.49
41.08
43.13
43.17
42.10
40.97
40.71
41.88
44.49
47.96
51.30
53.46
53.66
51.69
47.94
43.31
38.95
35.88
34.66
35.21
36.62
37.38
35.83
30.84
22.30
11.35
0.12
-9.01
-14.33
-15.31
-12.56
-7.41
-1.20
5.05
10.87
16.16
20.96
25.40
29.49
33.08
35.88
37.39
37.09
34.62
29.93
23.44
15.90
8.22
1.25
-4.43
-8.61
-11.34
-12.94
-13.91
-14.77
-15.96
-17.56
-19.30
-20.42
-19.86
-16.53
-9.87
-0.25
10.84
20.99
27.55
28.58
23.54
13.45
0.57
-12.48
-23.54
-31.49
-36.32
-38.86
-40.27
-41.58
-43.55
-46.37
-49.95
-53.87
-57.58
-60.50
-62.15
-62.43
-61.96
-62.25
-65.43
-73.31
-86.09
-101.56
-115.26
-121.89
-117.33
-100.23
-72.34
-37.44
0.10
36.61
69.23
95.52
113.17
120.56
117.84
107.72
95.04
84.91
80.66
82.56
87.98
93.23
95.32
93.14
87.11
78.26
66.86
52.40
34.11
12.13
-11.75
-34.26
-51.79
-62.16
-65.60
-64.49
-61.86
-59.73
-58.36
-56.90
-54.69
-51.94
-49.22
-46.18
-40.78
-30.00
-12.09
11.33
34.99
52.01
57.36
50.57
35.90
19.86
7.77
1.49
-0.60
-1.24
-2.43
-4.15
-5.02
-3.74
-0.51
2.82
3.56
-0.28
-8.83
-19.95
-30.06
-35.44
-33.71
-24.55
-9.57
8.80
28.45
48.43
68.86
90.17
111.99
132.53
148.78
157.43
156.15
144.43
123.82
97.39
68.80
41.54
18.38
1.09
-9.63
-13.96
-12.92
-7.95
-0.63
7.51
15.08
20.71
23.01
20.70
13.03
0.23
-16.31
-34.26
-50.95
-64.12
-72.37
-75.30
-73.25
-66.95
-57.27
-45.16
-31.70
-18.09
-5.45
5.34
13.81
19.92
23.89
26.07
26.78
26.36
25.10
23.33
21.34
19.31
17.31
15.25
12.89
9.96
6.34
2.09
-2.47
-6.73
-9.95
-11.37
-10.43
-6.91
-1.06
6.48
14.83
23.07
30.49
36.61
41.25
44.42
46.21
46.74
46.25
45.02
43.42
41.79
40.31
38.93
37.51
35.93
34.20
32.52
31.18
30.36
29.99
29.72
28.86
26.68
22.58
16.45
8.86
0.94
-5.87
-10.35
-11.98
-11.05
-8.58
-5.84
-3.93
-3.51
-4.78
-7.62
-11.67
-16.55
-21.72
-26.63
-30.70
-33.53
-35.01
-35.37
-35.13
-34.91
-35.23
-36.35
-38.26
-40.74
-43.53
-46.40
-49.31
-52.29
-55.42
-58.69
-61.88
-64.61
-66.36
-66.61
-64.95
-61.22
-55.54
-48.26
-39.83
-30.70
-21.35
-12.20
-3.65
3.87
9.88
14.01
16.00
15.78
13.50
9.50
4.36
-1.19
-6.22
-9.93
-11.76
-11.70
-10.37
-8.82
-8.34
-9.91
-13.90
-20.00
-27.22
-34.12
-39.16
-41.04
-38.88
-32.57
-22.81
-10.93
1.48
13.07
23.08
31.38
38.27
44.12
49.11
53.24
56.55
59.08
60.99
62.41
63.24
63.19
61.90
59.14
55.04
50.10
45.05
40.62
37.28
35.05
33.53
31.91
29.27
24.95
18.93
11.90
5.24
0.51
-1.20
0.51
5.21
11.94
19.61
27.34
34.49
40.60
45.22
48.02
48.87
47.93
45.64
42.66
39.48
36.41
33.63
31.13
28.84
26.53
23.89
20.51
16.05
10.50
4.10
-2.73
-9.70
-16.72
-23.89
-31.24
-38.46
-44.79
-49.27
-51.09
-49.94
-46.22
-40.90
-35.14
-29.91
-25.71
-22.55
-20.14
-18.19
-16.52
-15.13
-13.95
-12.86
-11.63
-10.19
-8.71
-7.56
-7.17
-7.65
-8.80
-10.18
-11.41
-12.43
-13.48
-14.93
-16.98
-19.58
-22.53
-25.79
-29.50
-33.90
-38.99
-44.14
-48.20
-49.90
-48.38
-43.56
-36.17
-27.48
-18.77
-11.04
-4.88
-0.41
2.49
4.10
4.83
5.11
5.25
5.40
5.38
4.78
3.23
0.49
-3.32
-7.81
-12.47
-16.90
-20.85
-24.30
-27.51
-30.90
-34.85
-39.57
-44.82
-49.84
-53.43
-54.24
-51.23
-44.03
-33.11
-19.82
-5.95
6.77
17.18
24.88
30.21
33.83
36.31
37.93
38.75
38.86
38.52
38.13
38.00
37.92
37.21
35.05
31.05
25.62
20.07
15.86
13.95
14.26
15.55
15.96
13.73
7.91
-1.32
-12.76
-24.62
-35.06
-42.64
-46.53
-46.62
-43.23
-36.88
-28.27
-18.09
-7.05
4.07
14.33
22.68
28.21
30.34
29.16
25.55
20.94
16.87
14.46
14.06
15.24
17.16
18.91
19.68
18.92
16.33
11.98
6.27
-0.08
-6.32
-12.04
-17.35
-22.75
-28.75
-35.27
-41.59
-46.50
-48.77
-47.68
-43.20
-35.86
-26.35
-15.44
-3.74
8.09
19.28
28.95
36.35
40.91
42.55
41.67
39.12
35.92
32.95
30.72
29.32
28.38
27.34
25.68
23.04
19.40
15.04
10.40
5.96
2.05
-1.28
-4.30
-7.55
-11.58
-16.74
-22.92
-29.49
-35.34
-39.25
-40.22
-37.69
-31.73
-22.97
-12.46
-1.35
9.33
18.85
26.85
33.31
38.40
42.35
45.30
47.29
48.31
48.45
47.87
46.84
45.47
43.63
41.00
37.13
31.83
25.29
18.11
11.14
5.16
0.58
-2.59
-4.75
-6.48
-8.34
-10.67
-13.47
-16.41
-18.87
-20.05
-19.22
-15.86
-9.78
-1.19
9.39
21.25
33.58
45.52
56.15
64.68
70.43
73.04
72.54
69.22
63.54
55.85
46.40
35.26
22.58
8.69
-5.66
-19.55
-31.91
-41.92
-49.13
-53.62
-55.92
-56.77
-56.97
-57.15
-57.73
-58.90
-60.58
-62.42
-63.74
-63.55
-60.84
-54.88
-45.62
-33.79
-20.77
-8.13
2.88
11.66
18.33
23.41
27.44
30.75
33.43
35.48
36.94
37.94
38.70
39.32
39.75
39.82
39.37
38.46
37.41
36.73
36.91
38.09
39.94
41.66
42.24
40.74
36.67
30.23
22.27
14.14
7.32
2.88
1.19
1.65
2.94
3.46
1.94
-2.10
-8.30
-15.77
-23.41
-30.28
-35.76
-39.40
-40.96
-40.42
-38.14
-34.87
-31.50
-28.86
-27.44
-27.25
-28.14
-29.88
-32.34
-35.41
-38.88
-42.39
-45.55
-48.11
-50.19
-52.10
-54.16
-56.51
-58.95
-61.02
-62.16
-61.89
-59.84
-55.80
-49.63
-41.36
-31.29
-19.99
-8.23
3.14
13.44
22.29
29.53
35.10
38.95
41.06
41.55
40.87
39.72
38.86
38.76
39.36
40.18
40.58
40.14
38.93
37.35
35.93
34.92
34.21
33.43
32.15
30.17
27.45
24.09
20.27
16.14
12.04
8.58
6.55
6.69
9.41
14.63
21.81
30.16
38.89
47.30
54.84
61.03
65.41
67.70
67.85
66.12
62.97
58.86
53.97
48.07
40.64
31.12
19.23
5.12
-10.54
-26.71
-42.35
-56.58
-68.93
-79.17
-87.34
-93.54
-97.83
-100.19
-100.44
-98.30
-93.51
-85.96
-75.97
-64.37
-52.36
-41.16
-31.66
-24.20
-18.61
-14.70
-12.43
-12.12
-14.12
-18.36
-24.12
-30.19
-35.14
-37.84
-37.80
-35.19
-30.75
-25.50
-20.48
-16.47
-13.95
-12.91
-13.00
-13.86
-15.22
-17.08
-19.60
-22.79
-26.32
-29.53
-31.63
-31.96
-30.08
-25.71
-18.68
-8.95
3.14
16.80
30.92
44.38
56.47
67.01
76.22
84.21
90.78
95.41
97.58
97.21
94.75
90.96
86.46
81.51
75.83
68.97
60.65
50.87
39.92
28.31
16.57
5.21
-5.32
-14.64
-22.55
-29.09
-34.54
-39.23
-43.34
-46.61
-48.43
-47.95
-44.53
-38.02
-28.92
-18.24
-7.14
3.36
12.67
20.62
27.22
32.56
36.59
39.12
39.89
38.77
35.80
31.17
25.19
18.22
10.62
2.68
-5.32
-13.01
-19.96
-25.67
-29.89
-32.69
-34.58
-36.25
-38.34
-41.07
-44.17
-46.97
-48.73
-48.83
-46.95
-43.06
-37.40
-30.33
-22.37
-14.00
-5.70
2.20
9.50
16.06
21.76
26.39
29.77
31.80
32.58
32.44
31.81
31.12
30.61
30.25
29.76
28.85
27.28
25.04
22.39
19.75
17.45
15.69
14.36
13.16
11.71
9.74
7.25
4.52
2.11
0.72
0.84
2.61
5.59
8.92
11.65
13.17
13.44
12.90
12.20
11.84
11.80
11.66
10.80
8.82
5.78
2.12
-1.63
-5.02
-8.02
-10.92
-14.11
-17.93
-22.41
-27.25
-31.96
-36.10
-39.51
-42.39
-45.23
-48.69
-53.27
-59.12
-65.92
-72.90
-78.94
-82.87
-83.75
-81.04
-74.76
-65.53
-54.47
-42.91
-32.08
-22.88
-15.70
-10.43
-6.62
-3.80
-1.53
0.40
2.08
3.52
4.71
5.53
5.70
4.79
2.43
-1.38
-6.14
-10.87
-14.53
-16.41
-16.55
-15.79
-15.41
-16.71
-20.45
-26.65
-34.50
-42.58
-49.22
-52.90
-52.62
-48.16
-40.01
-29.30
-17.26
-4.93
6.92
17.70
26.86
33.89
38.40
40.42
40.44
39.32
37.85
36.51
35.25
33.62
31.17
27.78
23.72
19.57
15.87
12.92
10.65
8.74
6.80
4.43
1.31
-2.82
-8.05
-14.12
-20.19
-24.87
-26.49
-23.70
-16.11
-4.52
9.28
23.24
35.79
46.37
55.28
63.27
70.86
77.99
84.07
88.31
90.18
89.58
86.84
82.45
76.84
70.40
63.47
56.54
50.42
46.15
44.66
46.43
51.08
57.40
63.55
67.54
67.75
63.33
54.39
41.94
27.58
13.15
0.29
-9.82
-16.77
-20.80
-22.72
-23.62
-24.55
-26.25
-29.21
-33.56
-39.25
-45.99
-53.20
-60.22
-66.39
-71.29
-74.92
-77.72
-80.32
-83.22
-86.47
-89.66
-91.90
-92.42
-90.85
-87.39
-82.76
-77.82
-73.45
-70.34
-69.01
-69.73
-72.35
-76.07
-79.40
-80.47
-77.59
-69.84
-57.49
-41.94
-25.33
-9.86
2.99
12.63
19.40
24.06
27.34
29.79
31.62
32.87
33.58
33.92
33.97
33.78
33.45
33.02
32.57
32.15
31.73
31.12
29.99
28.00
24.96
20.93
16.01
10.18
3.33
-4.55
-13.03
-21.11
-27.28
-30.15
-29.01
-24.12
-16.59
-7.82
1.07
9.56
17.61
25.43
32.93
39.48
44.14
46.13
45.26
42.10
37.78
33.44
29.76
26.81
24.20
21.45
18.34
15.00
11.76
8.98
6.87
5.50
4.86
4.80
4.95
4.53
2.57
-1.62
-8.02
-15.52
-22.14
-25.57
-23.95
-16.45
-3.50
13.24
31.33
48.23
61.90
71.18
75.88
76.43
73.60
68.15
60.72
52.04
42.91
34.11
26.08
18.72
11.52
3.87
-4.47
-13.19
-21.63
-29.22
-35.87
-42.03
-48.45
-55.73
-64.17
-73.65
-83.81
-93.98
-103.15
-110.02
-113.15
-111.29
-103.82
-91.05
-74.24
-55.23
-35.94
-17.91
-2.06
11.31
22.17
30.61
36.76
40.78
43.01
43.88
43.85
43.30
42.40
41.13
39.48
37.45
35.21
33.16
31.70
31.12
31.33
31.97
32.28
31.39
28.49
23.05
14.99
4.67
-7.05
-19.11
-30.24
-39.17
-44.82
-46.32
-43.35
-36.21
-25.86
-13.74
-1.36
10.02
19.73
27.66
34.05
39.28
43.61
47.11
49.81
51.74
53.06
53.98
54.69
55.24
55.52
55.33
54.28
52.07
48.48
43.38
36.92
29.28
20.72
11.47
1.81
-7.98
-17.57
-26.44
-34.04
-39.68
-42.67
-42.41
-38.78
-32.25
-23.97
-15.53
-8.42
-3.39
-0.41
1.26
2.40
3.28
3.63
2.82
0.43
-3.40
-8.06
-12.80
-17.20
-21.39
-25.78
-30.79
-36.30
-41.68
-46.04
-48.59
-49.01
-47.59
-45.08
-42.36
-40.28
-39.49
-40.36
-42.92
-46.79
-51.20
-54.97
-56.80
-55.58
-50.66
-42.13
-30.68
-17.48
-3.90
8.82
19.74
28.31
34.39
38.08
39.67
39.47
37.85
35.12
31.53
27.39
22.99
18.68
14.81
11.67
9.42
7.97
7.03
6.23
5.33
4.23
2.91
1.17
-1.47
-5.75
-12.22
-20.78
-30.33
-38.97
-44.64
-45.84
-42.13
-34.15
-23.28
-11.06
1.26
12.76
22.87
31.11
37.17
40.82
42.15
41.62
39.92
37.83
35.90
34.32
32.92
31.38
29.47
27.22
24.90
22.81
21.10
19.60
17.93
15.52
11.85
6.46
-0.87
-10.09
-20.72
-31.82
-42.00
-49.80
-53.93
-53.73
-49.26
-41.28
-31.01
-19.83
-8.95
0.76
8.79
15.03
19.57
22.62
24.41
25.15
25.12
24.63
23.90
22.98
21.71
19.78
16.89
13.03
8.48
3.82
-0.39
-3.93
-7.02
-10.27
-14.43
-20.04
-27.16
-35.39
-43.81
-51.27
-56.52
-58.55
-56.77
-51.11
-42.06
-30.45
-17.25
-3.43
10.30
23.38
35.46
46.26
55.47
62.75
67.80
70.42
70.58
68.42
64.18
58.09
50.39
41.39
31.59
21.78
12.89
5.69
0.46
-3.23
-6.36
-10.09
-15.42
-22.84
-32.19
-42.76
-53.42
-62.76
-69.24
-71.51
-68.66
-60.51
-47.71
-31.64
-14.04
3.46
19.69
34.02
46.27
56.38
64.19
69.53
72.30
72.71
71.28
68.64
65.23
61.12
56.11
50.02
42.96
35.43
28.07
21.30
15.12
9.12
2.77
-4.30
-12.18
-20.72
-29.73
-39.05
-48.51
-57.75
-66.09
-72.58
-76.06
-75.62
-70.76
-61.73
-49.49
-35.61
-21.89
-10.04
-1.32
3.59
4.68
2.53
-1.82
-7.07
-11.87
-15.10
-16.22
-15.30
-12.99
-10.14
-7.46
-5.22
-3.25
-1.09
1.64
5.09
9.03
12.89
15.92
17.33
16.56
13.48
8.63
3.17
-1.23
-2.92
-0.68
5.85
16.13
28.93
42.81
56.56
69.37
80.86
90.84
99.10
105.36
109.36
111.01
110.57
108.69
106.27
104.27
103.39
103.88
105.44
107.26
108.40
108.11
106.20
103.05
99.53
96.55
94.69
93.98
93.84
93.23
91.01
86.20
78.30
67.60
55.07
42.33
31.20
23.20
19.17
19.08
22.12
27.05
32.55
37.58
41.42
43.81
44.80
44.77
44.23
43.68
43.51
43.87
44.52
44.87
43.94
40.57
33.79
23.24
9.46
-6.17
-21.87
-36.14
-48.27
-58.43
-67.34
-75.69
-83.79
-91.56
-98.75
-105.42
-112.01
-119.15
-127.34
-136.46
-145.70
-153.74
-159.20
-161.03
-158.99
-153.58
-145.80
-136.79
-127.36
-117.82
-108.18
-98.44
-88.89
-80.13
-72.81
-67.20
-62.96
-59.28
-55.27
-50.36
-44.54
-38.25
-32.11
-26.65
-22.13
-18.57
-15.83
-13.65
-11.76
-9.87
-7.89
-5.97
-4.43
-3.72
-4.16
-5.92
-9.01
-13.29
-18.69
-24.92
-31.50
-37.59
-42.20
-44.38
-43.66
-40.18
-34.60
-27.96
-21.21
-14.99
-9.37
-3.95
1.81
8.16
14.76
20.61
24.50
25.66
24.30
21.64
19.45
19.19
21.28
24.85
28.21
29.64
28.32
24.67
20.07
16.24
14.36
14.58
16.11
17.66
18.01
16.63
13.79
10.19
6.65
3.65
1.16
-1.12
-3.57
-6.37
-9.39
-12.29
-14.68
-16.32
-17.12
-17.15
-16.52
-15.32
-13.61
-11.44
-8.96
-6.43
-4.17
-2.51
-1.72
-1.92
-3.11
-4.99
-6.99
-8.36
-8.40
-6.84
-4.07
-1.09
0.85
0.91
-1.02
-4.07
-6.92
-8.37
-7.90
-5.87
-3.22
-1.15
-0.61
-2.19
-6.06
-11.92
-19.06
-26.28
-32.12
-35.07
-34.11
-28.97
-20.27
-9.38
2.09
12.76
21.76
28.92
34.52
38.90
42.25
44.42
45.01
43.70
40.52
35.99
30.89
26.03
21.89
18.47
15.31
11.82
7.52
2.35
-3.33
-8.92
-13.86
-17.96
-21.38
-24.49
-27.65
-30.99
-34.52
-38.31
-42.45
-46.92
-51.35
-54.80
-56.00
-53.83
-47.90
-38.82
-27.95
-16.79
-6.52
2.33
9.76
16.00
21.26
25.68
29.28
31.92
33.47
33.82
33.02
31.41
29.46
27.56
25.79
23.79
21.06
17.20
12.14
6.24
0.03
-6.05
-11.84
-17.38
-22.83
-28.26
-33.73
-39.25
-44.88
-50.52
-55.88
-60.28
-62.82
-62.56
-58.97
-52.04
-42.38
-30.99
-18.87
-6.77
4.96
16.20
26.82
36.50
44.72
50.95
54.98
57.03
57.67
57.60
57.27
56.75
55.84
54.35
52.34
50.13
48.08
46.27
44.35
41.65
37.49
31.60
24.16
15.70
6.85
-1.85
-9.97
-17.04
-22.41
-25.44
-25.70
-23.24
-18.73
-13.19
-7.62
-2.66
1.52
5.06
8.09
10.59
12.27
12.91
12.52
11.54
10.69
10.60
11.57
13.34
15.25
16.63
17.10
16.72
15.85
14.84
13.70
11.99
9.06
4.39
-2.11
-10.02
-18.60
-27.07
-34.82
-41.44
-46.49
-49.44
-49.70
-46.85
-40.88
-32.42
-22.49
-12.22
-2.44
6.44
14.33
21.24
27.10
31.64
34.66
36.24
36.85
37.09
37.53
38.22
38.72
38.17
35.73
31.03
24.33
16.44
8.41
1.14
-4.98
-10.07
-14.68
-19.48
-25.16
-32.09
-40.21
-48.89
-56.92
-62.73
-64.75
-61.92
-54.07
-41.98
-27.23
-11.59
3.46
17.01
28.66
38.19
45.23
49.23
49.73
46.77
41.12
34.13
27.18
21.12
15.98
11.08
5.61
-0.78
-7.73
-14.45
-20.24
-24.86
-28.77
-32.84
-37.89
-44.21
-51.47
-58.74
-64.83
-68.59
-69.12
-66.00
-59.33
-49.82
-38.40
-26.03
-13.53
-1.56
9.30
18.56
25.72
30.40
32.41
31.90
29.51
25.99
21.97
17.91
14.12
10.75
8.03
5.91
4.40
3.81
4.11
4.70
4.73
3.41
0.17
-5.05
-12.33
-21.37
-30.74
-39.05
-45.19
-47.93
-46.22
-39.68
-28.96
-16.30
-4.15
7.11
17.94
28.98
41.19
54.95
69.57
83.59
94.69
101.39
105.27
108.12
110.52
112.22
112.16
108.94
107.32
111.24
113.20
110.50
106.37
101.73
96.32
88.85
77.64
60.98
36.38
1.77
-42.24
-93.65
-148.79
-201.11
-242.38
-265.38
-266.61
-248.55
-218.14
-182.73
-148.65
-119.74
-96.37
-76.93
-59.79
-44.38
-31.39
-21.50
-13.63
-6.17
1.97
11.14
20.62
28.94
34.46
36.02
33.62
28.87
23.91
20.55
19.76
21.34
24.13
26.55
27.48
26.68
25.06
23.96
24.32
26.33
29.20
31.59
32.21
30.50
26.73
21.83
16.82
12.35
8.48
4.78
0.77
-3.75
-8.44
-12.62
-15.59
-17.00
-16.97
-15.93
-14.25
-12.13
-9.55
-6.49
-3.21
-0.31
1.46
1.47
-0.40
-3.69
-7.52
-10.90
-13.06
-13.74
-13.11
-11.63
-9.85
-8.28
-7.34
-7.37
-8.67
-11.51
-16.03
-22.23
-29.88
-38.39
-46.80
-53.73
-57.74
-57.79
-53.68
-46.34
-37.54
-29.22
-22.71
-18.36
-15.54
-13.28
-10.78
-7.87
-4.83
-2.04
0.38
2.53
4.58
6.56
8.22
9.28
9.65
9.59
9.51
9.83
10.59
11.38
11.49
10.26
7.38
3.15
-1.70
-6.19
-9.44
-10.82
-10.03
-7.13
-2.52
3.10
8.88
14.09
18.43
22.18
25.96
30.24
34.91
39.10
41.61
41.51
38.76
34.32
29.61
25.74
22.94
20.45
17.03
11.65
4.01
-5.21
-14.67
-22.74
-27.96
-29.33
-26.52
-19.77
-9.86
2.09
14.82
27.14
38.11
47.14
53.93
58.33
60.27
59.76
56.96
52.28
46.39
40.15
34.36
29.54
25.83
22.95
20.46
17.91
15.06
11.87
8.40
4.83
1.32
-2.02
-5.18
-8.21
-11.28
-14.41
-17.51
-20.19
-21.89
-22.05
-20.27
-16.54
-11.14
-4.58
2.56
9.79
16.77
23.25
29.03
33.87
37.53
39.81
40.68
40.31
39.04
37.18
34.88
31.97
28.14
23.17
17.19
10.74
4.59
-0.54
-4.25
-6.48
-7.34
-7.07
-6.00
-4.62
-3.61
-3.66
-5.18
-8.02
-11.42
-14.31
-15.78
-15.41
-13.29
-9.74
-4.92
1.33
9.27
18.78
29.10
38.75
45.97
49.20
47.63
41.48
31.99
21.01
10.50
2.05
-3.62
-6.62
-7.66
-7.63
-7.01
-5.94
-4.29
-2.14
0.00
1.19
0.51
-2.62
-8.10
-15.30
-23.34
-31.35
-38.33
-43.31
-45.19
-43.02
-36.36
-25.66
-12.28
1.85
14.73
24.86
31.50
34.74
35.36
34.44
33.05
32.04
31.81
32.39
33.49
34.68
35.53
35.73
35.05
33.39
30.73
27.15
22.97
18.65
14.76
11.77
9.88
8.96
8.69
8.60
8.29
7.52
6.19
4.40
2.27
0.07
-1.98
-3.64
-4.73
-5.12
-4.77
-3.74
-2.22
-0.48
1.15
2.42
3.13
3.26
2.95
2.51
2.19
2.14
2.31
2.38
2.01
0.90
-0.99
-3.45
-6.04
-8.34
-9.92
-10.48
-9.82
-7.91
-4.93
-1.41
1.84
3.82
3.65
0.94
-4.03
-10.37
-16.80
-22.05
-25.18
-25.87
-24.27
-21.00
-16.87
-12.67
-9.02
-6.20
-4.35
-3.44
-3.35
-3.94
-5.03
-6.25
-7.12
-7.17
-6.18
-4.44
-2.66
-1.62
-1.66
-2.36
-2.65
-1.49
1.59
6.25
11.50
16.33
20.16
22.89
24.61
25.27
24.60
22.37
18.77
14.48
10.46
7.43
5.49
4.08
2.37
-0.27
-3.95
-8.27
-12.66
-16.60
-19.79
-22.18
-23.76
-24.58
-24.74
-24.30
-23.44
-22.39
-21.37
-20.52
-19.89
-19.37
-18.72
-17.69
-16.10
-13.97
-11.49
-9.01
-7.01
-5.84
-5.59
-6.02
-6.63
-6.87
-6.35
-5.08
-3.36
-1.71
-0.55
-0.10
-0.34
-1.20
-2.57
-4.47
-6.93
-9.81
-12.89
-15.76
-18.06
-19.53
-20.11
-19.94
-19.19
-18.13
-16.96
-15.84
-14.91
-14.31
-14.12
-14.38
-14.99
-15.79
-16.45
-16.71
-16.49
-15.88
-15.16
-14.56
-14.06
-13.42
-12.22
-10.28
-7.73
-5.10
-2.97
-1.77
-1.53
-2.05
-3.07
-4.44
-6.15
-8.18
-10.37
-12.47
-14.24
-15.82
-17.58
-20.07
-23.63
-28.21
-33.29
-38.05
-41.78
-44.04
-44.67
-43.82
-41.76
-38.85
-35.58
-32.61
-30.71
-30.50
-32.26
-35.71
-40.03
-44.13
-46.95
-47.86
-46.73
-43.94
-40.01
-35.46
-30.68
-26.06
-22.09
-19.38
-18.54
-19.87
-22.94
-26.52
-28.70
-27.42
-21.27
-9.93
5.63
23.44
41.24
57.12
69.99
79.64
86.46
91.07
93.85
94.91
94.15
91.50
87.03
80.96
73.70
65.68
57.38
49.29
41.78
35.16
29.58
25.07
21.42
18.32
15.37
12.26
8.92
5.55
2.49
0.13
-1.36
-2.16
-2.76
-3.76
-5.73
-8.95
-13.33
-18.42
-23.36
-27.01
-28.13
-25.80
-19.82
-10.90
-0.50
9.68
18.31
24.81
29.27
32.11
33.66
34.01
33.06
30.98
28.19
25.34
23.08
21.70
21.01
20.54
19.71
18.11
15.65
12.53
9.17
5.99
3.32
1.28
-0.16
-1.19
-2.04
-2.98
-4.34
-6.41
-9.47
-13.51
-18.10
-22.36
-25.05
-25.05
-21.72
-15.22
-6.43
3.35
12.74
20.69
26.60
30.33
32.06
32.22
31.31
29.86
28.22
26.57
24.91
23.21
21.41
19.71
18.42
17.88
18.24
19.39
20.88
22.20
22.97
23.01
22.47
21.61
20.69
19.75
18.61
17.05
14.94
12.16
8.68
4.48
-0.33
-5.25
-9.35
-11.27
-9.81
-4.46
4.03
13.69
21.92
26.47
26.35
22.18
15.77
9.40
4.87
3.01
3.53
5.35
7.03
7.32
5.58
2.02
-2.33
-5.71
-6.09
-1.72
8.05
22.23
37.87
50.59
55.66
49.44
30.63
0.81
-35.86
-73.72
-107.13
-131.81
-145.99
-150.75
-149.39
-146.14
-144.48
-145.74
-148.68
-150.13
-146.42
-135.17
-116.29
-92.17
-66.66
-43.63
-25.62
-13.41
-6.08
-1.83
1.26
4.66
9.10
14.63
20.68
26.29
30.26
31.34
28.53
21.48
10.78
-1.98
-14.67
-25.29
-32.59
-36.52
-37.98
-38.45
-39.29
-41.29
-44.41
-47.86
-50.45
-50.94
-48.50
-42.95
-34.91
-25.46
-15.88
-7.25
-0.14
5.40
9.79
13.67
17.76
22.62
28.55
35.38
42.42
48.61
52.70
53.86
51.90
47.42
41.38
34.68
27.77
20.55
12.66
3.72
-6.25
-16.75
-26.67
-34.42
-38.30
-36.95
-30.00
-18.43
-4.33
9.71
21.56
30.24
36.04
39.93
42.92
45.33
46.91
47.15
45.69
42.68
38.65
34.19
29.70
25.26
20.70
15.77
10.41
4.83
-0.42
-4.64
-7.33
-8.44
-8.43
-8.22
-8.77
-10.75
-14.46
-19.87
-26.74
-34.74
-43.28
-51.36
-57.50
-59.96
-57.37
-49.28
-36.48
-20.86
-4.71
10.11
22.70
33.16
42.20
50.40
57.74
63.56
66.91
67.17
64.47
59.69
54.10
48.84
44.51
41.11
38.23
35.37
32.18
28.55
24.53
20.18
15.49
10.30
4.41
-2.25
-9.55
-17.13
-24.55
-31.62
-38.46
-45.30
-52.14
-58.24
-62.15
-62.04
-56.61
-45.68
-30.47
-13.03
4.64
21.31
36.75
51.24
64.87
77.16
87.02
93.35
95.53
93.77
88.93
82.07
74.13
65.64
56.75
47.60
38.42
29.62
21.62
14.60
8.42
2.57
-3.51
-10.19
-17.40
-24.70
-31.53
-37.44
-42.49
-47.28
-52.74
-59.77
-68.67
-78.73
-88.12
-94.35
-95.10
-89.05
-76.54
-59.47
-40.51
-22.02
-5.42
8.99
21.55
32.50
41.49
47.79
50.68
49.95
46.04
39.96
32.93
25.96
19.69
14.33
9.73
5.44
1.00
-3.94
-9.33
-14.79
-19.68
-23.34
-25.47
-26.32
-26.61
-27.38
-29.70
-34.34
-41.47
-50.54
-60.15
-68.28
-72.69
-71.60
-64.08
-50.35
-31.71
-9.98
12.89
35.32
56.22
74.93
91.10
104.50
114.93
122.29
126.62
128.19
127.51
125.33
122.57
120.14
118.70
118.47
119.21
120.37
121.36
121.79
121.62
121.06
120.42
119.95
119.81
120.03
120.64
121.67
123.23
125.43
128.26
131.56
135.08
138.72
142.88
148.28
155.67
164.91
174.25
180.35
179.18
167.59
144.77
112.82
76.02
39.16
5.88
-22.42
-46.44
-68.12
-89.75
-113.45
-141.06
-174.08
-212.93
-256.04
-299.38
-336.99
-362.81
-372.91
-367.31
-349.98
-327.21
-304.97
-286.64
-272.23
-259.23
-244.58
-226.32
-204.36
-180.08
-155.32
-131.39
-108.91
-87.89
-68.19
-49.87
-33.31
-18.96
-7.02
2.83
11.49
20.25
30.41
42.90
57.86
74.71
92.37
109.70
125.91
140.53
153.34
163.93
171.39
174.45
171.81
162.71
147.27
126.59
102.32
76.19
49.60
23.29
-2.49
-27.66
-52.05
-75.24
-96.59
-115.35
-130.75
-141.95
-148.03
-147.93
-140.89
-126.89
-107.07
-83.76
-60.11
-39.07
-22.53
-10.80
-2.67
3.86
10.77
19.57
31.01
45.27
62.07
80.57
99.25
116.13
129.03
136.29
137.39
132.93
124.25
112.61
98.80
82.92
64.83
44.73
23.30
1.73
-18.70
-37.00
-52.69
-65.74
-76.42
-85.06
-92.11
-97.94
-103.03
-107.85
-112.74
-117.77
-122.55
-126.38
-128.54
-128.60
-126.55
-122.60
-116.82
-108.69
-97.32
-81.90
-62.46
-40.18
-17.11
4.58
23.41
38.85
51.07
60.46
67.16
71.10
72.29
71.11
68.40
65.13
61.96
59.01
55.91
52.12
47.32
41.64
35.59
29.61
23.86
18.13
12.07
5.52
-1.27
-7.66
-13.06
-17.28
-20.71
-24.14
-28.32
-33.79
-40.74
-49.11
-58.55
-68.25
-76.67
-81.68
-81.10
-73.54
-59.28
-40.27
-19.50
0.16
16.84
30.08
40.40
48.60
55.24
60.43
64.11
66.29
67.20
67.17
66.44
65.06
62.86
59.70
55.54
50.60
45.32
40.24
35.86
32.45
29.87
27.54
24.66
20.60
15.26
9.21
3.51
-0.87
-3.47
-4.63
-5.13
-5.73
-6.80
-8.10
-9.21
-9.91
-10.41
-11.29
-13.12
-16.21
-20.41
-25.20
-29.72
-32.72
-32.53
-27.36
-15.76
2.74
27.17
55.27
84.19
111.39
135.42
156.01
173.63
188.71
201.29
210.85
216.71
218.36
215.81
209.53
200.26
188.89
176.18
162.75
149.09
135.70
123.28
112.67
104.84
100.56
100.09
102.84
107.25
110.97
111.38
106.32
94.77
77.08
54.81
30.11
4.90
-19.70
-43.59
-67.63
-93.17
-121.61
-153.71
-189.04
-225.49
-259.60
-287.22
-304.85
-310.85
-305.94
-292.92
-275.48
-257.11
-240.13
-225.66
-213.94
-204.72
-197.42
-191.00
-183.91
-174.32
-160.76
-142.83
-121.59
-99.37
-79.09
-63.29
-53.09
-47.94
-45.73
-43.63
-39.00
-30.19
-16.87
0.11
19.27
39.00
57.95
75.31
90.86
105.08
119.06
134.04
150.83
168.90
185.96
198.12
200.81
190.02
163.51
121.40
66.00
1.29
-67.85
-136.16
-198.41
-249.77
-286.37
-305.99
-308.61
-296.70
-274.74
-248.27
-222.59
-201.58
-186.93
-178.39
-174.61
-174.41
-177.54
-184.56
-195.92
-210.70
-226.29
-238.83
-244.86
-242.70
-233.09
-218.44
-201.29
-182.75
-161.99
-137.17
-106.97
-72.10
-35.36
-0.73
28.37
50.37
65.77
76.39
83.96
89.16
91.44
89.78
83.71
74.03
62.97
53.47
48.21
48.78
55.10
65.64
77.92
89.26
97.42
100.98
99.11
91.28
77.18
56.97
31.65
3.53
-24.00
-47.23
-62.90
-68.99
-64.95
-51.38
-29.81
-2.40
28.10
58.55
85.87
107.63
122.69
131.29
134.90
135.53
135.11
135.16
136.44
139.06
142.42
145.37
146.58
144.90
139.80
131.53
120.87
108.98
96.83
85.11
74.29
64.43
55.51
47.76
42.17
40.50
44.63
55.57
72.22
91.16
107.84
118.31
120.99
117.19
110.10
103.03
97.98
95.39
94.96
96.65
100.69
106.77
113.00
115.74
111.03
96.55
73.13
44.75
16.80
-5.89
-20.67
-27.30
-27.04
-21.75
-13.29
-3.59
5.18
10.40
9.44
0.34
-17.30
-41.88
-69.89
-96.46
-116.84
-127.75
-128.42
-120.63
-107.46
-91.64
-74.36
-55.30
-33.46
-8.42
19.01
46.84
72.74
94.72
111.48
122.46
127.73
127.99
124.48
118.81
112.49
106.34
100.41
94.09
86.92
79.05
71.24
64.37
58.74
53.89
48.67
42.09
33.79
24.37
15.17
7.56
2.54
0.73
2.59
8.34
17.54
28.35
37.44
40.89
36.07
23.35
6.57
-8.25
-15.58
-12.58
-0.01
18.66
39.25
58.34
73.83
84.53
89.53
88.02
79.74
65.58
47.80
29.48
13.88
3.43
-0.65
1.40
7.94
16.14
22.74
24.95
21.44
12.79
1.20
-10.68
-20.96
-29.19
-36.19
-43.05
-50.22
-56.96
-61.61
-62.32
-57.73
-47.46
-31.92
-12.38
9.34
31.02
50.33
65.38
74.98
78.83
77.39
71.43
61.93
49.89
36.40
22.84
10.67
1.10
-5.30
-8.90
-10.94
-13.14
-16.99
-23.22
-31.60
-41.07
-50.26
-57.86
-62.99
-65.30
-64.87
-62.19
-58.11
-53.83
-50.52
-49.03
-49.41
-50.85
-52.02
-51.56
-48.77
-43.78
-37.39
-30.52
-23.75
-17.20
-10.60
-3.82
2.91
8.99
13.66
16.59
18.03
18.79
19.90
22.03
25.13
28.43
30.85
31.42
29.65
25.57
19.61
12.42
4.82
-2.47
-8.81
-13.96
-18.17
-22.16
-26.86
-32.96
-40.43
-48.36
-55.19
-59.21
-59.17
-54.70
-46.45
-35.70
-24.09
-13.07
-3.76
3.35
8.15
10.93
12.12
12.27
11.98
11.71
11.80
12.28
12.96
13.54
13.74
13.42
12.65
11.81
11.42
12.01
13.91
16.91
20.26
22.96
24.08
23.02
19.87
15.23
9.95
4.72
-0.14
-4.81
-9.76
-15.32
-21.21
-26.48
-29.76
-29.79
-25.91
-18.41
-8.28
3.22
14.96
26.15
36.17
44.41
50.18
53.03
52.98
50.69
47.18
43.50
40.33
37.84
35.81
33.95
31.91
29.34
25.98
21.73
16.79
11.57
6.54
1.99
-2.19
-6.43
-11.08
-16.24
-21.64
-26.98
-32.35
-38.38
-46.02
-55.96
-67.94
-80.62
-92.08
-100.54
-105.18
-106.23
-104.58
-101.00
-95.59
-87.88
-77.31
-63.90
-48.67
-33.38
-19.89
-9.44
-2.29
2.08
4.51
5.54
5.23
3.36
-0.09
-4.65
-9.35
-13.12
-15.22
-15.55
-14.62
-13.16
-11.69
-10.34
-8.93
-7.19
-5.03
-2.63
-0.31
1.67
3.19
4.25
4.85
4.89
4.23
2.84
0.91
-1.16
-2.85
-3.78
-3.74
-2.81
-1.25
0.55
2.05
2.64
1.78
-0.73
-4.50
-8.49
-11.39
-12.13
-10.35
-6.54
-1.73
3.13
7.53
11.57
15.58
19.78
24.05
28.03
31.38
34.05
36.33
38.66
41.33
44.33
47.19
49.32
50.27
49.96
48.78
47.29
45.86
44.32
42.06
38.30
32.73
25.74
18.31
11.48
5.82
1.14
-3.43
-8.81
-15.64
-24.03
-33.63
-43.87
-54.20
-64.09
-73.01
-80.31
-85.28
-87.31
-86.08
-81.66
-74.56
-65.68
-56.12
-46.87
-38.59
-31.40
-25.13
-19.37
-13.88
-8.61
-3.75
0.45
3.88
6.57
8.75
10.52
11.73
11.80
9.85
5.09
-2.73
-12.89
-23.71
-33.00
-38.72
-39.70
-35.89
-28.20
-18.00
-6.70
4.53
14.80
23.42
29.96
34.37
37.09
38.84
40.40
42.23
44.25
45.96
46.72
46.06
43.83
40.27
35.79
30.90
26.05
21.59
17.69
14.36
11.41
8.49
5.29
1.61
-2.60
-7.21
-12.10
-17.30
-22.96
-29.28
-36.32
-43.64
-50.45
-55.63
-58.03
-57.01
-52.41
-44.63
-34.52
-23.17
-11.71
-1.14
7.85
15.07
20.72
25.19
28.81
31.60
33.30
33.69
32.76
30.85
28.52
26.08
23.51
20.38
16.19
10.81
4.60
-1.77
-7.65
-12.68
-16.83
-20.20
-22.92
-25.11
-26.91
-28.65
-30.87
-33.93
-37.85
-42.03
-45.44
-46.90
-45.55
-41.00
-33.44
-23.42
-11.79
0.51
12.39
22.77
30.70
35.60
37.47
36.75
34.25
30.78
26.85
22.75
18.52
14.20
9.94
5.91
2.35
-0.54
-2.63
-3.85
-4.33
-4.37
-4.52
-5.37
-7.33
-10.46
-14.32
-18.32
-21.94
-25.05
-27.98
-31.05
-34.43
-37.71
-40.12
-40.76
-39.11
-35.13
-29.10
-21.41
-12.46
-2.71
7.11
16.11
23.27
27.97
30.27
30.74
30.27
29.44
28.38
26.72
23.98
19.97
15.05
9.96
5.60
2.59
1.06
0.65
0.71
0.55
-0.30
-1.94
-4.20
-6.94
-10.09
-13.74
-17.88
-22.37
-26.95
-31.38
-35.60
-39.49
-42.69
-44.28
-43.07
-38.06
-29.01
-17.03
-3.98
8.15
18.06
25.44
30.86
34.91
37.94
40.02
40.93
40.52
38.76
35.65
31.22
25.74
19.77
14.11
9.43
5.85
2.93
-0.29
-4.60
-10.15
-16.54
-23.22
-29.93
-36.58
-43.19
-49.75
-56.23
-62.58
-68.69
-74.35
-78.98
-81.58
-81.13
-77.07
-69.57
-59.56
-48.28
-36.39
-24.00
-10.94
2.79
16.51
28.89
38.69
45.32
49.11
50.98
51.89
52.43
52.57
51.68
49.17
44.92
39.39
33.42
27.81
23.21
19.84
17.80
16.95
16.98
17.18
16.56
14.17
9.55
2.94
-4.82
-12.89
-20.93
-29.18
-38.11
-47.63
-56.69
-63.31
-65.46
-61.93
-52.94
-40.04
-25.34
-10.73
2.74
14.90
25.97
36.21
45.49
53.34
59.12
62.42
63.26
62.06
59.48
56.10
52.23
47.87
42.89
37.27
31.24
25.22
19.67
14.82
10.63
6.93
3.50
0.19
-3.20
-6.98
-11.71
-18.02
-26.27
-36.21
-46.70
-55.98
-62.09
-63.54
-59.80
-51.39
-39.64
-26.14
-12.27
1.04
13.40
24.65
34.54
42.76
48.92
52.82
54.55
54.44
52.82
49.95
45.83
40.42
33.79
26.15
17.85
9.30
1.01
-6.62
-13.19
-18.46
-22.47
-25.54
-28.10
-30.74
-33.99
-38.34
-44.25
-51.89
-60.92
-70.26
-78.25
-83.16
-83.81
-80.12
-72.98
-63.74
-53.56
-42.94
-31.74
-19.56
-6.37
7.35
20.47
31.61
39.65
44.02
44.95
43.24
40.00
36.15
32.30
28.78
25.81
23.82
23.24
23.89
24.69
23.76
19.18
10.15
-2.08
-14.60
-24.19
-29.04
-29.89
-29.83
-32.45
-39.85
-51.56
-64.85
-76.24
-83.20
-84.91
-81.95
-75.12
-64.84
-50.94
-33.46
-13.26
7.86
27.62
44.21
56.75
65.43
70.95
74.16
75.64
75.62
74.22
71.59
68.01
63.89
59.71
55.69
51.62
47.09
41.67
35.02
27.23
18.81
10.41
2.56
-4.30
-10.08
-15.08
-20.09
-26.32
-35.03
-46.94
-61.68
-77.58
-91.83
-101.28
-103.35
-96.79
-82.15
-61.22
-36.51
-10.70
13.84
35.36
52.64
65.10
72.96
77.05
78.52
78.41
77.48
76.15
74.53
72.54
70.08
67.03
63.15
58.30
52.51
46.04
39.44
33.11
27.14
21.17
14.71
7.48
-0.33
-8.33
-16.30
-24.41
-33.52
-44.68
-58.34
-73.92
-89.57
-102.47
-109.63
-108.94
-99.77
-83.21
-61.68
-38.04
-14.87
5.98
23.47
37.07
46.60
52.11
54.02
53.17
50.79
48.14
46.13
45.04
44.48
43.60
41.54
37.75
32.27
25.56
18.32
11.23
4.66
-1.29
-6.77
-12.06
-17.53
-23.62
-30.94
-40.18
-51.85
-65.78
-80.71
-94.24
-103.23
-104.76
-97.15
-80.65
-57.38
-30.56
-3.49
21.46
43.13
61.38
76.46
88.50
97.31
102.55
104.16
102.53
98.50
93.13
87.28
81.50
75.75
69.70
62.86
54.93
45.94
36.23
26.40
17.03
8.47
0.63
-6.95
-14.99
-24.17
-34.96
-47.40
-61.02
-74.73
-86.84
-95.26
-97.75
-92.66
-79.46
-59.11
-33.84
-6.51
20.17
44.29
64.95
81.98
95.61
106.05
113.44
117.95
119.90
119.81
118.40
116.40
114.45
113.03
112.34
112.18
112.02
110.99
108.04
102.49
94.21
83.83
72.38
60.96
50.14
39.72
28.83
16.32
1.38
-16.10
-35.34
-54.75
-72.24
-85.67
-93.25
-94.00
-87.94
-76.17
-60.57
-43.38
-26.59
-11.64
0.72
10.29
17.16
21.51
23.51
23.37
21.54
18.61
15.17
11.72
8.42
5.18
1.78
-1.81
-5.36
-8.31
-10.00
-10.07
-8.64
-6.42
-4.48
-3.85
-5.20
-8.56
-13.55
-19.59
-26.11
-32.50
-37.95
-41.26
-40.91
-35.47
-24.22
-7.56
13.06
35.69
58.53
80.39
100.59
118.43
132.80
141.99
144.11
137.79
122.97
101.09
74.91
47.68
22.21
0.14
-18.25
-33.72
-47.39
-60.02
-71.68
-81.79
-89.52
-94.34
-96.24
-95.76
-93.67
-90.70
-87.39
-84.22
-81.75
-80.73
-81.95
-85.78
-91.73
-98.22
-102.75
-102.76
-96.57
-84.13
-67.16
-48.56
-31.15
-16.84
-6.08
1.72
7.52
11.87
14.74
15.87
15.22
13.37
11.38
10.19
10.24
11.15
12.04
12.08
10.96
8.97
6.79
5.03
3.84
2.81
1.12
-1.99
-6.89
-13.44
-21.16
-29.48
-37.92
-46.06
-53.26
-58.51
-60.58
-58.37
-51.48
-40.56
-27.17
-13.32
-0.63
10.11
19.07
26.92
34.31
41.23
47.00
50.46
50.58
47.08
40.62
32.65
24.80
18.31
13.58
10.29
7.74
5.30
2.70
-0.05
-2.88
-5.94
-9.55
-14.04
-19.46
-25.54
-31.88
-38.11
-44.13
-49.87
-55.12
-59.25
-61.31
-60.29
-55.59
-47.36
-36.42
-24.04
-11.44
0.50
11.27
20.65
28.40
34.35
38.30
40.17
40.11
38.43
35.58
32.15
28.66
25.51
22.88
20.62
18.33
15.53
11.95
7.67
3.04
-1.43
-5.42
-8.92
-12.25
-15.83
-19.96
-24.74
-30.15
-36.06
-42.21
-48.11
-52.83
-55.13
-53.78
-48.11
-38.38
-25.89
-12.44
0.23
11.04
19.77
26.75
32.42
36.93
40.03
41.37
40.78
38.56
35.44
32.28
29.71
27.86
26.41
24.84
22.83
20.40
17.91
15.75
14.16
12.96
11.77
10.13
7.75
4.42
-0.08
-6.04
-13.78
-23.27
-33.78
-43.73
-51.02
-53.77
-51.01
-43.12
-31.63
-18.65
-6.16
4.60
13.15
19.57
24.14
27.13
28.79
29.39
29.26
28.73
27.99
27.04
25.76
24.03
21.87
19.36
16.63
13.69
10.41
6.63
2.19
-2.89
-8.48
-14.32
-20.13
-25.70
-31.03
-36.26
-41.70
-47.54
-53.73
-59.65
-64.17
-65.70
-62.74
-54.41
-40.91
-23.64
-4.76
13.43
29.14
41.56
50.73
57.23
61.68
64.36
65.26
64.29
61.57
57.52
52.65
47.45
42.29
37.55
33.53
30.48
28.23
26.14
23.26
18.87
12.79
5.70
-1.20
-6.81
-10.76
-13.43
-15.76
-18.77
-23.22
-29.60
-38.04
-48.09
-58.54
-67.28
-71.76
-69.99
-61.48
-47.53
-30.74
-14.10
0.15
10.98
18.44
23.25
26.26
28.21
29.49
30.42
30.88
30.50
28.88
25.81
21.64
17.12
13.10
10.20
8.50
7.62
6.95
5.92
4.13
1.36
-2.47
-7.12
-12.24
-17.36
-22.07
-26.38
-30.71
-35.81
-42.21
-49.82
-57.59
-63.67
-66.17
-63.56
-55.45
-42.57
-26.69
-9.85
5.96
19.35
29.67
36.75
40.93
42.71
42.68
41.49
39.72
37.80
35.96
34.20
32.34
30.14
27.33
23.80
19.51
14.65
9.53
4.55
0.05
-3.77
-6.85
-9.30
-11.34
-13.22
-15.28
-17.79
-21.08
-25.38
-30.80
-37.18
-43.97
-50.05
-53.96
-54.18
-49.59
-40.18
-27.12
-12.35
1.76
13.34
21.45
26.17
28.19
28.46
27.70
26.34
24.64
22.85
21.16
19.73
18.41
16.85
14.53
11.08
6.41
0.79
-5.29
-11.38
-17.20
-22.73
-28.15
-33.52
-38.75
-43.58
-47.83
-51.57
-55.24
-59.47
-64.82
-71.34
-78.35
-84.52
-88.05
-87.19
-80.86
-69.00
-52.70
-33.92
-14.92
2.41
16.83
27.97
35.98
41.22
43.96
44.41
42.97
40.36
37.55
35.49
34.73
35.19
36.26
37.02
36.73
34.90
31.58
27.16
22.30
17.69
13.91
11.24
9.50
8.24
6.73
4.35
0.63
-4.75
-11.98
-20.98
-31.23
-41.48
-49.86
-54.44
-53.78
-47.61
-37.00
-23.99
-10.82
0.81
10.04
17.00
22.18
26.09
28.94
30.45
30.25
27.99
23.72
17.81
10.95
3.87
-2.83
-8.81
-13.94
-18.17
-21.42
-23.58
-24.59
-24.58
-23.99
-23.46
-23.73
-25.51
-29.24
-35.06
-42.84
-52.14
-62.17
-71.78
-79.52
-83.69
-82.87
-76.29
-64.26
-48.19
-30.09
-12.13
4.12
17.93
29.37
38.97
47.30
54.58
60.66
65.01
67.03
66.27
62.73
56.92
49.70
42.02
34.64
27.89
21.85
16.51
11.99
8.53
6.25
4.87
3.66
1.62
-2.28
-8.62
-17.51
-28.52
-40.74
-52.88
-63.35
-70.37
-72.40
-68.49
-58.72
-44.18
-26.73
-8.48
8.83
24.05
36.62
46.40
53.37
57.59
59.27
58.80
56.72
53.68
50.16
46.35
42.19
37.40
31.71
25.11
17.81
10.34
3.31
-2.76
-7.67
-11.62
-15.12
-18.82
-23.33
-29.13
-36.46
-45.40
-55.67
-66.45
-76.35
-83.52
-86.23
-83.34
-74.84
-61.72
-45.69
-28.53
-11.65
4.15
18.40
30.79
40.97
48.59
53.44
55.51
55.01
52.36
47.98
42.37
36.05
29.48
22.99
16.71
10.43
3.86
-3.28
-10.98
-18.87
-26.43
-33.12
-38.65
-43.03
-46.59
-49.87
-53.52
-58.13
-64.03
-70.85
-77.34
-81.42
-80.66
-73.03
-57.59
-34.80
-6.31
25.67
58.93
91.79
123.09
152.09
178.24
201.12
220.30
235.47
246.42
253.12
255.75
254.72
250.61
243.97
235.21
224.51
211.89
197.40
181.22
163.77
145.59
127.18
108.82
90.49
71.90
52.66
32.49
11.24
-11.05
-34.30
-58.49
-83.52
-108.93
-133.53
-155.32
-171.84
-180.97
-181.82
-175.25
-163.67
-150.16
-137.43
-127.04
-119.23
-113.42
-108.86
-105.00
-101.61
-98.44
-95.08
-90.89
-85.21
-77.69
-68.41
-57.79
-46.43
-34.87
-23.56
-12.91
-3.30
4.95
11.63
16.73
20.25
22.15
22.08
19.51
13.71
4.19
-9.04
-25.08
-42.15
-57.74
-69.21
-74.44
-72.47
-63.88
-50.66
-35.55
-21.23
-9.47
-0.77
5.53
10.67
15.83
21.57
27.84
34.11
39.84
44.70
48.64
51.68
53.67
54.27
53.07
49.88
44.87
38.55
31.60
24.62
17.97
11.65
5.44
-1.03
-8.12
-16.04
-24.78
-34.12
-43.78
-53.50
-63.14
-72.48
-81.11
-88.22
-92.69
-93.38
-89.53
-81.05
-68.54
-53.20
-36.38
-19.42
-3.40
10.79
22.47
31.28
37.08
40.10
40.93
40.39
39.40
38.76
38.92
39.88
41.25
42.40
42.73
41.89
39.87
36.97
33.63
30.30
27.30
24.89
23.14
22.03
21.36
20.81
19.90
18.15
15.22
10.93
5.55
-0.24
-5.24
-7.76
-6.06
1.34
15.08
34.72
58.77
85.12
111.65
136.82
159.94
181.03
200.54
218.71
235.08
248.20
255.76
255.04
243.81
221.10
187.77
146.47
100.97
55.29
12.68
-24.81
-56.48
-82.54
-103.64
-120.54
-133.81
-143.91
-151.22
-156.07
-158.80
-159.75
-159.25
-157.64
-155.19
-151.96
-147.72
-142.00
-134.18
-123.84
-111.06
-96.59
-81.64
-67.57
-55.46
-45.83
-38.63
-33.52
-30.13
-28.25
-27.79
-28.63
-30.47
-32.85
-35.22
-37.17
-38.53
-39.33
-39.75
-40.00
-40.11
-40.03
-39.72
-39.22
-38.76
-38.66
-39.18
-40.39
-42.04
-43.74
-45.14
-46.23
-47.32
-49.02
-51.83
-55.79
-60.27
-63.98
-65.35
-63.06
-56.44
-45.74
-32.03
-16.89
-1.91
11.58
22.83
31.61
38.09
42.67
45.75
47.64
48.54
48.56
47.77
46.28
44.16
41.46
38.30
34.71
30.84
26.85
22.97
19.37
16.22
13.56
11.27
9.03
6.35
2.60
-2.71
-9.77
-18.43
-28.20
-38.41
-48.43
-57.50
-64.76
-69.16
-69.66
-65.67
-57.31
-45.56
-32.00
-18.30
-5.77
4.86
13.30
19.45
23.24
24.66
23.97
21.69
18.60
15.50
12.97
11.20
10.25
10.03
10.37
11.17
12.11
12.82
13.03
12.54
11.30
9.50
7.31
4.78
1.89
-1.56
-5.83
-11.15
-17.87
-26.26
-36.49
-48.36
-61.09
-73.18
-82.71
-87.80
-87.19
-80.71
-69.34
-54.89
-39.45
-24.73
-11.77
-0.92
7.94
15.00
20.21
23.49
24.71
23.97
21.71
18.70
15.64
13.13
11.37
10.13
9.06
7.80
6.10
4.01
1.67
-0.83
-3.45
-6.32
-9.61
-13.51
-18.16
-23.58
-29.80
-36.66
-43.73
-50.29
-55.29
-57.56
-56.16
-50.63
-41.17
-28.66
-14.38
0.31
14.19
26.48
36.78
45.09
51.42
55.94
58.68
59.72
59.23
57.55
55.17
52.56
50.09
47.83
45.66
43.25
40.23
36.32
31.33
25.35
18.72
11.99
5.76
0.35
-4.32
-8.80
-13.94
-20.53
-29.04
-39.37
-50.90
-62.46
-72.56
-79.51
-81.64
-77.70
-67.15
-50.52
-29.40
-6.23
16.40
36.21
51.85
62.97
70.02
73.77
74.99
74.17
71.50
67.12
61.28
54.39
46.94
39.28
31.63
23.94
16.14
8.18
0.26
-7.27
-14.03
-19.63
-23.87
-26.71
-28.34
-29.19
-29.87
-31.13
-33.75
-38.36
-45.24
-54.11
-63.90
-72.83
-78.65
-79.22
-73.26
-60.79
-43.27
-23.11
-2.95
15.22
30.48
42.99
53.54
62.86
71.13
77.88
82.22
83.39
81.23
76.35
70.00
63.60
58.29
54.51
52.09
50.44
48.91
47.11
44.85
42.16
39.04
35.41
31.13
26.03
19.98
12.82
4.48
-4.98
-15.08
-24.76
-32.34
-35.83
-33.34
-23.78
-7.23
14.93
40.17
65.36
87.49
104.23
114.40
118.03
116.19
110.48
102.53
93.57
84.29
74.92
65.50
56.20
47.36
39.38
32.46
26.60
21.44
16.43
11.09
5.09
-1.49
-8.33
-14.99
-21.05
-26.30
-30.87
-35.26
-40.26
-46.71
-55.13
-65.29
-76.01
-85.42
-91.38
-92.29
-87.47
-77.53
-64.10
-49.30
-35.27
-23.48
-14.62
-8.65
-5.00
-2.93
-1.76
-1.11
-0.90
-1.28
-2.30
-3.72
-4.96
-5.21
-3.78
-0.57
3.87
8.41
11.79
13.12
12.21
9.54
6.05
2.58
-0.40
-2.84
-5.11
-7.86
-11.86
-17.91
-26.59
-37.77
-50.37
-62.38
-71.10
-74.08
-69.77
-58.05
-40.30
-18.97
3.07
23.28
39.84
52.06
60.21
65.21
68.21
70.19
71.69
72.78
73.20
72.63
70.92
68.21
65.00
61.88
59.22
56.96
54.55
51.37
47.05
41.91
36.78
32.51
29.56
27.54
25.56
22.73
18.57
13.21
7.03
0.19
-7.46
-16.04
-25.15
-33.31
-38.19
-37.38
-29.35
-14.15
6.53
29.82
52.66
72.59
88.31
99.74
107.74
113.67
118.90
124.35
130.38
136.81
143.13
148.87
153.91
158.58
163.47
169.28
176.44
185.03
194.69
204.54
213.13
218.47
218.39
210.90
194.89
170.37
138.57
101.45
61.02
18.66
-25.13
-70.41
-117.08
-164.07
-209.04
-248.78
-280.16
-301.17
-311.50
-312.38
-305.87
-293.92
-277.81
-258.15
-235.35
-210.14
-183.76
-157.71
-133.33
-111.33
-91.71
-74.01
-57.71
-42.65
-29.15
-17.93
-9.59
-4.21
-1.18
0.58
2.18
4.20
6.51
8.42
9.11
8.09
5.44
1.69
-2.47
-6.52
-10.28
-13.89
-17.64
-21.67
-25.87
-29.77
-32.65
-33.81
-32.80
-29.70
-25.14
-20.09
-15.57
-12.26
-10.44
-9.91
-10.31
-11.33
-12.79
-14.72
-17.16
-20.15
-23.55
-27.09
-30.37
-32.96
-34.50
-34.89
-34.27
-33.04
-31.66
-30.49
-29.66
-29.02
-28.36
-27.56
-26.70
-26.06
-25.97
-26.75
-28.61
-31.64
-35.70
-40.18
-44.01
-45.70
-43.82
-37.56
-27.15
-13.79
0.74
14.81
27.46
38.55
48.39
57.28
65.10
71.41
75.75
78.04
78.75
78.75
78.84
79.43
80.38
81.16
81.14
79.86
77.15
73.13
68.05
62.24
56.00
49.56
43.01
36.39
29.58
22.51
15.09
7.35
-0.74
-9.20
-18.09
-27.34
-36.60
-45.26
-52.54
-57.77
-60.78
-61.90
-61.84
-61.38
-61.06
-60.92
-60.59
-59.58
-57.51
-54.25
-49.98
-45.05
-39.87
-34.85
-30.35
-26.62
-23.76
-21.73
-20.42
-19.72
-19.68
-20.56
-22.71
-26.36
-31.39
-37.26
-43.14
-48.19
-51.92
-54.42
-56.37
-58.83
-62.83
-68.95
-76.93
-85.61
-93.17
-97.66
-97.53
-92.21
-82.18
-68.77
-53.64
-38.31
-23.84
-10.85
0.32
9.39
16.10
20.34
22.30
22.56
22.02
21.68
22.31
24.28
27.45
31.22
34.75
37.15
37.70
35.96
31.91
25.98
18.90
11.59
4.71
-1.39
-6.93
-12.53
-18.96
-26.79
-36.00
-45.82
-54.82
-61.24
-63.46
-60.51
-52.26
-39.53
-23.70
-6.44
10.80
26.95
41.41
53.92
64.39
72.73
78.81
82.44
83.42
81.81
77.92
72.42
66.21
60.16
54.88
50.56
47.02
43.87
40.67
37.09
33.02
28.49
23.57
18.42
13.29
8.44
4.10
0.29
-3.38
-7.72
-13.64
-21.60
-31.17
-40.85
-48.33
-51.36
-48.62
-40.18
-27.34
-12.19
3.17
17.34
29.66
39.85
47.83
53.62
57.18
58.50
57.56
54.38
48.94
41.40
32.45
23.13
14.58
7.55
2.34
-1.25
-3.50
-4.44
-3.89
-1.84
1.02
3.31
3.15
-0.86
-8.94
-20.06
-32.50
-44.66
-55.57
-64.94
-72.68
-78.27
-80.48
-77.85
-69.43
-55.22
-36.56
-15.59
5.45
25.09
42.80
58.73
73.21
86.23
97.34
105.93
111.61
114.50
115.20
114.56
113.32
111.88
110.16
107.72
103.85
97.82
89.03
77.14
62.22
44.83
25.91
6.66
-11.73
-28.40
-42.92
-55.36
-66.01
-75.12
-82.39
-86.86
-87.05
-81.43
-69.05
-49.98
-25.34
2.91
32.52
61.39
87.84
110.78
129.65
144.34
154.89
161.09
162.22
157.13
144.73
124.77
98.40
68.16
37.31
8.80
-15.57
-35.28
-50.73
-62.47
-70.79
-75.57
-76.58
-73.96
-68.42
-61.33
-54.66
-50.71
-51.78
-59.73
-75.24
-97.41
-123.57
-149.77
-171.74
-185.95
-190.60
-185.86
-173.65
-156.92
-138.71
-121.45
-106.53
-94.30
-84.38
-75.94
-68.09
-59.97
-50.99
-41.04
-30.54
-20.55
-12.41
-7.42
-6.34
-8.94
-14.16
-20.27
-25.52
-28.68
-29.58
-29.11
-28.92
-30.87
-36.23
-45.27
-57.17
-70.33
-82.98
-93.59
-101.19
-105.44
-106.73
-106.02
-104.79
-104.47
-105.86
-108.61
-111.15
-111.25
-107.03
-97.78
-84.18
-67.90
-50.74
-33.96
-18.16
-3.61
9.18
19.31
25.65
27.46
24.90
19.13
12.03
5.60
1.18
-0.90
-1.35
-1.56
-3.12
-7.40
-15.07
-25.92
-38.75
-51.37
-60.98
-64.72
-60.42
-47.20
-25.75
1.93
33.27
65.81
97.80
128.19
156.31
181.44
202.66
218.97
229.81
235.37
236.60
234.84
231.08
225.59
217.75
206.55
191.19
171.66
148.93
124.51
99.96
76.28
53.74
31.94
10.24
-11.98
-35.02
-58.62
-81.82
-102.76
-118.94
-127.67
-126.93
-116.10
-96.37
-70.45
-41.73
-13.33
12.66
35.28
54.41
70.35
83.33
93.62
101.45
107.27
111.65
115.13
117.87
119.63
119.79
117.81
113.55
107.63
101.30
95.98
92.68
91.47
91.43
90.90
88.09
81.68
71.23
57.37
41.76
26.80
15.24
9.49
10.96
19.62
33.89
51.17
68.60
83.93
95.92
104.32
109.38
111.30
110.01
105.24
96.72
84.52
69.11
51.23
31.82
11.79
-7.92
-26.45
-42.97
-56.75
-67.20
-73.96
-77.09
-77.14
-75.21
-72.92
-72.11
-74.40
-80.68
-90.73
-103.04
-115.04
-123.68
-126.26
-121.14
-108.16
-88.58
-64.48
-38.19
-11.72
13.32
35.65
54.14
67.88
76.48
80.43
81.06
80.29
79.95
81.21
84.30
88.69
93.58
98.38
103.03
108.08
114.23
121.90
130.89
140.11
147.83
151.91
150.24
141.33
124.78
101.70
74.84
48.15
25.87
11.37
6.19
9.56
18.78
30.11
40.09
46.61
49.40
49.82
49.81
50.94
53.59
57.02
60.16
62.54
64.84
68.66
75.57
86.21
99.76
114.17
127.06
136.39
140.89
140.03
133.68
122.15
106.26
87.40
67.31
47.68
29.60
13.35
-1.41
-15.40
-29.27
-43.23
-56.92
-69.42
-79.56
-86.37
-89.63
-89.91
-88.57
-87.20
-87.16
-89.31
-94.00
-101.37
-111.38
-123.81
-138.04
-152.93
-166.94
-178.58
-186.89
-191.67
-193.43
-193.13
-191.66
-189.63
-187.22
-184.18
-180.20
-175.23
-169.66
-164.51
-161.06
-160.27
-162.21
-165.77
-168.83
-168.95
-164.29
-154.16
-139.13
-120.53
-99.80
-77.88
-55.26
-32.42
-10.43
8.79
22.90
30.02
29.69
23.25
13.45
3.42
-4.42
-8.96
-10.34
-9.33
-6.76
-3.30
0.38
3.33
4.42
2.65
-2.24
-9.43
-17.15
-23.31
-26.30
-25.59
-21.82
-16.42
-10.97
-6.60
-3.84
-2.64
-2.83
-4.38
-7.47
-12.37
-19.07
-27.10
-35.48
-43.15
-49.43
-54.31
-58.23
-61.65
-64.63
-66.65
-67.08
-65.74
-63.22
-60.73
-59.49
-59.96
-61.67
-63.46
-64.23
-63.53
-61.81
-60.04
-59.23
-59.89
-61.90
-64.59
-66.95
-67.78
-65.96
-60.59
-51.29
-38.25
-22.34
-4.87
12.67
29.02
43.18
54.45
62.37
66.67
67.43
65.20
61.04
56.28
52.09
49.08
47.06
45.22
42.71
39.05
34.51
29.85
25.93
23.16
21.30
19.53
16.92
12.78
6.95
-0.11
-7.49
-14.01
-18.50
-20.11
-18.49
-13.85
-6.92
1.40
10.29
19.17
27.72
35.69
42.79
48.53
52.39
54.04
53.48
51.14
47.65
43.60
39.37
35.03
30.47
25.72
20.95
16.58
12.92
10.10
7.86
5.68
3.05
-0.41
-4.86
-10.29
-16.53
-23.22
-29.64
-34.81
-37.60
-37.18
-33.29
-26.37
-17.33
-7.22
3.17
13.38
23.09
31.99
39.60
45.32
48.70
49.58
48.29
45.46
41.88
38.21
34.80
31.69
28.66
25.45
21.93
18.16
14.35
10.74
7.36
4.10
0.59
-3.58
-8.69
-14.77
-21.42
-27.76
-32.61
-34.82
-33.62
-28.94
-21.46
-12.25
-2.51
6.89
15.42
22.82
28.86
33.23
35.58
35.77
34.11
31.29
28.19
25.51
23.57
22.17
20.80
18.93
16.21
12.70
8.84
5.23
2.39
0.52
-0.60
-1.55
-3.10
-5.90
-10.25
-15.96
-22.25
-27.96
-31.79
-32.60
-29.83
-23.57
-14.62
-4.15
6.51
16.32
24.61
31.12
35.86
38.97
40.58
40.83
39.91
38.06
35.54
32.59
29.35
25.88
22.17
18.23
14.19
10.27
6.76
3.87
1.54
-0.57
-3.07
-6.62
-11.74
-18.50
-26.48
-34.73
-41.96
-46.81
-48.24
-45.74
-39.53
-30.46
-19.81
-8.94
1.04
9.42
15.93
20.64
23.80
25.61
26.27
25.91
24.72
22.99
21.04
19.13
17.29
15.32
12.86
9.58
5.44
0.77
-3.83
-7.84
-10.99
-13.57
-16.19
-19.62
-24.39
-30.52
-37.48
-44.22
-49.45
-51.90
-50.72
-45.61
-37.09
-26.32
-14.81
-4.01
5.11
12.19
17.42
21.28
24.18
26.31
27.66
28.14
27.65
26.20
23.86
20.67
16.72
12.14
7.21
2.32
-2.05
-5.57
-8.17
-10.10
-11.91
-14.22
-17.49
-21.92
-27.29
-33.04
-38.36
-42.30
-43.97
-42.76
-38.49
-31.50
-22.53
-12.55
-2.43
7.17
15.92
23.64
30.17
35.27
38.68
40.22
40.01
38.48
36.24
33.83
31.54
29.29
26.75
23.62
19.80
15.56
11.36
7.66
4.75
2.54
0.68
-1.32
-3.84
-7.02
-10.63
-14.09
-16.56
-17.23
-15.53
-11.34
-4.95
3.09
12.33
22.56
33.71
45.70
58.07
70.00
80.48
88.69
94.37
97.81
99.72
101.11
103.26
107.78
116.10
128.65
143.76
157.54
164.95
162.15
148.63
128.04
106.62
90.14
80.94
76.58
70.98
57.38
31.15
-8.49
-58.67
-113.93
-167.52
-212.05
-240.10
-245.35
-224.63
-180.00
-119.70
-56.82
-5.56
23.37
26.13
6.47
-26.65
-63.16
-95.59
-120.91
-139.91
-154.97
-167.58
-177.11
-181.21
-177.23
-163.88
-142.12
-114.75
-85.35
-57.04
-31.52
-9.30
9.76
25.64
37.79
45.58
48.96
49.09
48.23
48.92
52.81
59.97
68.83
76.92
81.96
82.73
79.29
72.63
63.88
53.65
41.67
27.14
9.17
-12.57
-37.49
-64.05
-89.93
-112.48
-129.24
-138.58
-140.27
-135.62
-127.23
-118.20
-111.23
-107.71
-107.47
-108.92
-109.77
-107.77
-101.33
-89.76
-73.20
-52.39
-28.41
-2.54
23.89
49.49
73.00
93.38
109.94
122.56
131.58
137.75
141.99
145.12
147.57
149.29
149.75
148.22
144.06
137.12
127.86
117.28
106.49
96.29
86.92
77.96
68.72
58.53
47.21
35.19
23.52
13.54
6.48
3.16
3.67
7.46
13.50
20.56
27.53
33.56
38.13
41.02
42.29
42.15
41.00
39.31
37.51
35.86
34.39
32.90
31.06
28.52
24.87
19.82
13.20
5.09
-4.20
-14.09
-23.92
-33.12
-41.30
-48.40
-54.62
-60.28
-65.64
-70.71
-75.04
-77.80
-77.99
-74.75
-67.75
-57.37
-44.66
-31.00
-17.72
-5.61
5.07
14.53
23.00
30.42
36.27
39.75
40.09
37.04
31.07
23.28
14.99
7.17
0.04
-6.90
-14.26
-22.09
-29.61
-35.39
-38.18
-37.76
-35.23
-32.53
-31.49
-32.87
-36.05
-39.48
-41.69
-41.95
-40.62
-38.74
-37.48
-37.72
-39.89
-44.04
-49.88
-56.75
-63.53
-68.91
-71.71
-71.36
-68.11
-62.92
-57.16
-52.14
-48.80
-47.52
-48.07
-49.53
-50.62
-50.13
-47.45
-42.83
-37.31
-32.00
-27.40
-23.14
-18.23
-11.77
-3.64
5.33
13.77
20.46
24.99
27.92
30.45
33.87
39.02
45.89
53.69
61.02
66.31
68.29
66.43
61.09
53.51
45.36
38.29
33.42
31.06
30.71
31.35
31.89
31.50
29.91
27.27
23.99
20.46
16.78
12.89
8.62
3.84
-1.43
-7.18
-13.43
-20.27
-27.73
-35.60
-43.32
-50.16
-55.55
-59.23
-61.29
-61.88
-60.88
-57.78
-52.03
-43.58
-33.37
-23.37
-15.99
-13.23
-15.82
-22.83
-31.89
-39.77
-43.30
-40.17
-29.42
-11.68
11.08
36.09
60.49
82.01
99.26
111.65
119.14
122.02
120.85
116.32
108.88
98.18
82.88
61.25
32.51
-1.91
-37.95
-70.02
-93.15
-105.09
-107.11
-102.85
-96.11
-88.84
-80.50
-69.16
-53.43
-33.74
-12.52
6.95
22.01
31.61
36.30
37.56
36.96
35.61
34.01
32.30
30.40
28.37
26.39
24.87
24.29
25.04
26.79
28.48
28.80
26.89
23.41
20.64
21.39
27.13
36.75
47.09
54.93
59.05
60.92
63.27
67.65
72.93
76.13
74.95
70.29
66.64
69.57
81.99
101.56
121.28
132.98
131.77
118.58
99.59
82.77
73.92
74.46
81.49
89.78
94.49
93.04
85.56
73.92
60.44
46.65
32.83
18.07
0.65
-21.30
-49.04
-82.64
-120.39
-158.68
-192.55
-216.55
-225.92
-217.97
-193.05
-155.18
-111.82
-72.38
-45.75
-37.48
-47.91
-72.08
-101.57
-127.60
-143.96
-148.63
-143.47
-132.54
-120.00
-108.66
-99.53
-92.29
-85.97
-79.60
-72.41
-63.80
-53.24
-40.48
-25.70
-9.90
5.16
17.26
24.57
26.40
23.61
18.48
13.83
12.06
14.40
20.67
29.63
39.64
49.20
57.28
63.28
66.90
67.97
66.51
62.69
57.02
50.34
43.77
38.46
35.18
33.98
33.95
33.44
30.74
24.96
16.76
8.25
2.31
1.24
5.85
15.08
26.69
38.22
47.86
54.80
59.07
61.20
62.05
62.84
64.63
67.62
70.29
69.15
59.86
39.32
8.01
-28.98
-63.32
-86.56
-93.67
-85.11
-66.24
-44.75
-27.52
-18.81
-19.64
-28.72
-43.57
-61.20
-78.64
-92.84
-101.16
-102.35
-97.50
-89.71
-83.02
-80.91
-84.98
-95.17
-110.23
-128.35
-147.90
-167.72
-186.18
-200.84
-208.84
-207.76
-197.51
-179.96
-158.22
-135.60
-115.81
-100.93
-91.06
-84.83
-79.90
-75.72
-72.25
-69.18
-66.33
-66.15
-70.63
-79.96
-92.15
-102.97
-111.30
-116.68
-118.40
-116.03
-113.34
-113.31
-116.37
-120.30
-120.10
-116.23
-110.14
-102.26
-92.77
-86.91
-88.97
-100.02
-117.49
-134.60
-151.06
-167.52
-183.59
-164.01
-90.20
29.68
163.88
259.98
318.30
347.71
355.97
354.60
349.11
338.05
320.20
297.08
273.21
256.18
245.94
240.42
238.11
237.32
232.98
221.44
202.48
179.58
159.90
145.14
135.09
129.03
125.26
119.65
109.15
93.35
74.73
58.43
46.28
38.60
35.02
34.07
32.88
29.14
22.18
13.31
5.45
-0.05
-2.71
-2.72
-0.95
1.21
2.67
3.01
2.44
1.52
0.07
-2.26
-5.64
-9.96
-14.74
-19.37
-23.34
-26.34
-28.22
-28.93
-28.42
-26.81
-24.39
-21.63
-19.00
-16.72
-14.52
-11.83
-8.07
-3.03
2.88
8.83
13.90
17.40
19.16
19.47
18.97
18.47
18.96
21.44
26.52
33.95
41.96
47.60
47.34
38.38
19.76
-6.81
-37.13
-65.75
-87.58
-99.51
-100.61
-91.97
-76.26
-57.04
-37.92
-21.92
-10.83
-5.01
-4.21
-7.03
-12.00
-18.46
-27.23
-39.85
-57.22
-78.49
-100.87
-121.25
-136.08
-142.48
-139.03
-126.14
-105.46
-79.70
-52.75
-29.53
-15.89
-14.43
-22.82
-34.47
-42.09
-40.59
-29.33
-11.90
13.98
45.15
76.67
105.28
130.79
152.81
169.39
178.02
177.75
170.32
157.97
144.22
130.72
117.59
102.60
83.33
58.68
29.81
-0.10
-27.97
-50.82
-67.46
-74.18
-72.07
-64.60
-55.78
-48.59
-44.22
-42.72
-42.70
-42.12
-38.92
-32.59
-23.12
-10.90
3.46
18.99
34.08
47.02
56.35
61.14
60.69
55.24
46.07
35.10
24.37
15.28
8.26
2.69
-2.80
-10.18
-20.80
-35.09
-52.47
-71.73
-91.36
-109.74
-124.76
-133.81
-134.41
-124.95
-105.89
-80.03
-51.75
-25.27
-3.16
14.12
27.47
37.77
45.00
48.38
47.25
42.10
34.77
27.81
23.34
22.37
24.63
29.11
34.67
40.35
45.48
49.55
52.24
53.53
53.71
53.40
53.25
53.72
54.91
56.44
57.60
57.54
55.54
51.26
44.93
37.20
28.99
21.05
13.62
6.50
-0.75
-8.47
-16.62
-24.81
-32.55
-39.55
-45.94
-52.18
-58.78
-66.11
-74.23
-83.05
-92.47
-102.44
-112.86
-123.27
-132.61
-139.30
-141.57
-137.94
-127.59
-110.61
-87.89
-61.08
-32.28
-3.84
21.97
43.34
59.31
69.95
76.28
79.91
82.54
85.52
89.76
95.61
103.02
111.64
120.90
130.03
138.28
145.00
149.84
152.78
154.03
153.93
152.50
149.32
143.42
133.57
118.75
98.76
74.65
48.71
24.08
4.05
-8.66
-12.42
-7.21
5.14
21.01
35.64
44.40
44.45
35.82
21.45
5.75
-7.34
-16.13
-21.49
-25.87
-31.68
-40.18
-51.47
-65.03
-80.49
-97.51
-115.41
-132.72
-147.50
-158.32
-164.98
-168.73
-171.32
-173.86
-176.25
-177.67
-177.53
-176.22
-174.77
-173.76
-172.53
-169.28
-162.28
-151.17
-137.45
-123.66
-111.80
-102.34
-93.77
-83.46
-68.88
-48.38
-21.41
11.48
48.60
86.86
121.83
148.48
162.46
161.85
148.18
126.23
102.54
83.33
72.33
69.82
72.89
76.82
77.12
71.30
59.67
45.04
31.56
23.05
21.45
25.74
31.91
34.28
28.07
11.67
-12.27
-37.61
-57.68
-67.97
-67.75
-59.34
-46.08
-30.26
-12.54
7.29
28.83
50.09
67.97
79.78
84.62
83.94
80.99
79.39
81.96
89.95
102.44
116.44
127.83
132.49
127.87
114.15
94.17
72.66
55.14
46.84
51.75
71.53
104.46
145.04
184.62
213.66
224.72
214.91
186.58
146.06
101.04
58.01
21.23
-7.23
-26.62
-37.06
-39.78
-37.55
-34.34
-34.04
-39.00
-48.87
-61.00
-71.89
-78.68
-80.45
-78.16
-73.85
-69.50
-66.47
-65.28
-65.85
-67.88
-70.87
-74.21
-77.25
-79.42
-80.56
-81.00
-81.24
-81.72
-82.41
-82.84
-82.35
-80.44
-76.96
-72.25
-66.89
-61.56
-56.77
-52.72
-49.26
-46.05
-42.79
-39.40
-36.17
-33.60
-32.01
-31.31
-30.86
-29.61
-26.45
-20.73
-12.28
-1.62
10.35
22.54
33.83
43.23
50.06
54.02
55.29
54.42
52.01
48.46
43.77
37.69
30.12
21.34
12.16
3.53
-3.78
-9.52
-13.79
-16.71
-18.21
-17.96
-15.80
-12.18
-8.17
-5.20
-4.35
-5.98
-9.56
-14.12
-18.63
-22.41
-25.18
-27.07
-28.43
-29.86
-31.97
-35.04
-38.69
-41.69
-42.25
-38.85
-30.83
-18.82
-4.52
9.99
23.00
33.65
41.94
48.20
52.70
55.37
55.89
54.07
50.26
45.39
40.68
37.10
34.93
33.67
32.27
29.72
25.57
20.11
14.22
8.84
4.61
1.62
-0.57
-2.55
-4.89
-7.98
-12.01
-17.07
-23.31
-30.77
-39.13
-47.51
-54.41
-58.06
-56.89
-50.11
-38.02
-21.93
-3.74
14.51
31.18
45.16
55.90
63.30
67.62
69.29
68.90
67.04
64.17
60.57
56.20
50.73
43.79
35.15
24.99
13.98
3.12
-6.61
-14.57
-20.71
-25.35
-29.05
-32.24
-35.22
-38.21
-41.50
-45.56
-50.82
-57.58
-65.74
-74.88
-84.34
-93.35
-101.01
-106.39
-108.44
-106.21
-99.05
-86.91
-70.49
-51.16
-30.66
-10.68
7.50
23.20
36.25
46.86
55.40
62.14
67.30
71.03
73.49
74.90
75.58
75.84
75.91
75.87
75.61
75.02
73.97
72.40
70.35
67.97
65.40
62.74
60.00
57.02
53.55
49.31
44.12
37.96
31.07
23.87
16.86
10.48
5.04
0.72
-2.42
-4.42
-5.43
-5.81
-6.11
-7.00
-9.13
-12.86
-18.05
-23.90
-29.04
-31.67
-30.04
-22.94
-10.14
7.44
27.81
48.58
67.39
82.42
92.65
97.69
97.55
92.44
82.74
69.11
52.68
34.92
17.50
1.89
-10.97
-20.86
-28.18
-33.62
-37.91
-41.50
-44.51
-46.84
-48.23
-48.50
-47.57
-45.54
-42.66
-39.30
-35.85
-32.59
-29.65
-26.97
-24.47
-22.19
-20.29
-19.11
-18.99
-20.13
-22.61
-26.21
-30.52
-34.81
-38.04
-39.07
-36.98
-31.44
-22.92
-12.57
-1.77
8.32
17.06
24.29
30.19
34.89
38.44
40.83
42.15
42.69
42.85
43.02
43.34
43.80
44.23
44.57
44.88
45.39
46.32
47.70
49.26
50.39
50.30
48.27
43.89
37.22
28.72
19.10
9.07
-0.83
-10.37
-19.60
-28.79
-38.26
-48.34
-59.19
-70.64
-82.16
-92.81
-101.40
-106.81
-108.34
-105.97
-100.39
-92.66
-83.88
-74.75
-65.51
-56.01
-46.09
-35.81
-25.59
-16.05
-7.89
-1.68
2.23
3.76
3.11
0.77
-2.60
-6.31
-9.72
-12.47
-14.34
-15.28
-15.32
-14.60
-13.39
-12.17
-11.52
-11.96
-13.74
-16.70
-20.32
-23.94
-27.03
-29.42
-31.37
-33.52
-36.65
-41.45
-48.17
-56.42
-65.06
-72.40
-76.64
-76.36
-70.94
-60.66
-46.56
-30.01
-12.35
5.29
22.02
37.04
49.59
59.05
65.13
67.97
68.14
66.50
63.86
60.81
57.63
54.29
50.61
46.42
41.68
36.49
31.09
25.73
20.59
15.71
10.91
5.86
0.20
-6.26
-13.39
-20.76
-27.77
-33.98
-39.36
-44.45
-50.18
-57.45
-66.64
-77.23
-87.72
-96.06
-100.20
-98.73
-91.34
-78.77
-62.58
-44.67
-26.76
-10.15
4.47
16.87
27.08
35.27
41.63
46.30
49.47
51.42
52.49
53.04
53.28
53.15
52.34
50.39
47.09
42.56
37.44
32.60
28.78
26.19
24.46
22.68
19.83
15.30
9.07
1.71
-5.87
-12.81
-18.62
-23.29
-27.24
-31.23
-36.07
-42.42
-50.50
-59.94
-69.55
-77.50
-81.59
-79.81
-70.94
-55.01
-33.36
-8.30
17.51
41.72
62.73
79.81
92.91
102.24
108.02
110.31
109.15
104.76
97.67
88.80
79.22
69.98
61.70
54.56
48.34
42.70
37.49
32.82
28.94
25.89
23.26
20.16
15.53
8.60
-0.84
-12.35
-25.09
-38.16
-50.83
-62.65
-73.45
-83.25
-92.32
-101.13
-110.35
-120.65
-132.50
-145.95
-160.38
-174.47
-186.38
-194.15
-196.27
-192.00
-181.65
-166.33
-147.44
-126.13
-103.12
-78.72
-53.18
-27.08
-1.41
22.56
43.64
61.00
74.20
83.30
88.73
91.17
91.52
90.70
89.48
88.37
87.49
86.73
85.75
84.17
81.66
78.02
73.12
67.01
59.90
52.10
43.93
35.64
27.32
18.86
10.13
1.01
-8.49
-18.34
-28.60
-39.54
-51.74
-65.81
-82.13
-100.32
-119.03
-136.01
-148.54
-154.24
-151.65
-140.60
-122.13
-98.09
-70.76
-42.37
-14.88
10.27
32.25
50.91
66.52
79.56
90.46
99.42
106.52
111.82
115.42
117.46
118.08
117.40
115.58
112.94
109.91
106.94
104.14
101.25
97.65
92.76
86.26
78.29
69.31
59.84
50.18
40.37
30.26
19.68
8.55
-3.00
-14.72
-26.28
-37.39
-47.91
-58.01
-68.24
-79.38
-92.03
-106.15
-120.56
-132.98
-140.53
-140.58
-131.68
-114.01
-89.28
-60.17
-29.51
0.27
27.53
51.24
70.95
86.49
98.00
105.83
110.60
113.03
113.89
113.78
113.01
111.66
109.73
107.25
104.42
101.44
98.49
95.53
92.33
88.65
84.34
79.41
73.95
68.02
61.49
54.16
45.82
36.38
25.96
14.85
3.44
-7.92
-18.90
-29.33
-39.25
-48.96
-59.04
-70.21
-83.08
-97.72
-113.26
-127.78
-138.54
-142.69
-138.13
-124.26
-102.24
-74.64
-44.67
-15.27
11.49
34.57
53.71
69.06
80.79
89.05
94.02
96.07
95.79
93.98
91.41
88.67
85.98
83.28
80.32
76.88
72.95
68.71
64.49
60.57
57.06
53.77
50.28
46.02
40.54
33.58
25.22
15.81
5.81
-4.29
-14.14
-23.55
-32.52
-41.27
-50.19
-59.89
-70.97
-83.79
-98.01
-112.38
-124.70
-132.25
-132.51
-124.02
-106.87
-82.74
-54.39
-24.95
2.95
27.57
48.16
64.72
77.62
87.30
94.11
98.34
100.28
100.31
98.86
96.39
93.30
89.91
86.44
83.00
79.69
76.52
73.45
70.38
67.08
63.30
58.82
53.53
47.42
40.56
32.98
24.68
15.65
5.90
-4.40
-14.94
-25.33
-35.23
-44.50
-53.30
-62.05
-71.36
-81.89
-94.06
-107.80
-122.23
-135.49
-145.03
-148.16
-142.93
-128.81
-106.95
-79.90
-50.71
-22.21
3.70
26.02
44.44
58.99
69.78
77.03
81.18
82.90
83.07
82.46
81.57
80.54
79.27
77.59
75.52
73.35
71.47
70.23
69.67
69.43
68.85
67.13
63.71
58.48
51.79
44.34
36.91
29.97
23.54
17.18
10.21
2.03
-7.57
-18.28
-29.41
-40.23
-50.19
-59.28
-67.94
-77.01
-87.33
-99.50
-113.45
-128.18
-141.73
-151.38
-154.42
-148.89
-134.35
-112.12
-84.89
-55.92
-28.11
-3.36
17.51
34.50
47.97
58.24
65.53
70.04
72.05
72.10
70.87
69.12
67.50
66.39
65.82
65.50
65.01
63.96
62.19
59.80
57.06
54.23
51.31
48.08
44.04
38.71
31.79
23.34
13.89
4.11
-5.27
-13.83
-21.51
-28.65
-35.78
-43.49
-52.29
-62.52
-74.17
-86.67
-98.61
-107.75
-111.40
-107.14
-93.79
-71.90
-43.78
-12.74
18.01
46.29
71.32
93.39
113.18
131.04
146.80
159.95
170.15
177.66
183.39
188.70
195.02
203.41
214.27
227.18
240.77
252.78
260.55
261.51
254.07
238.10
215.07
187.50
158.11
128.83
100.20
71.54
41.60
9.46
-24.81
-60.02
-94.23
-125.34
-151.61
-171.99
-186.20
-194.75
-199.05
-201.33
-204.27
-210.13
-219.84
-232.39
-245.09
-254.74
-259.06
-257.57
-251.48
-242.69
-232.47
-220.91
-207.09
-190.19
-170.30
-148.74
-127.48
-108.19
-91.56
-77.20
-64.15
-51.66
-39.48
-27.89
-17.25
-7.66
1.27
10.19
19.61
29.51
39.27
47.75
53.76
56.48
55.75
52.18
46.85
40.93
35.17
29.68
23.96
17.20
8.71
-1.70
-13.69
-26.49
-39.27
-51.38
-62.64
-73.27
-83.82
-95.05
-107.62
-121.83
-137.28
-152.60
-165.45
-173.00
-172.75
-163.35
-145.13
-120.01
-90.89
-60.81
-32.18
-6.44
15.85
34.74
50.49
63.39
73.63
81.41
86.94
90.51
92.52
93.40
93.64
93.64
93.73
94.07
94.61
95.08
95.08
94.13
91.88
88.31
83.69
78.49
73.08
67.57
61.71
55.11
47.47
38.78
29.28
19.36
9.40
-0.44
-10.15
-19.82
-29.68
-40.13
-51.74
-65.02
-79.97
-95.58
-109.67
-119.29
-121.54
-114.71
-98.87
-75.97
-49.04
-21.30
4.79
27.89
47.57
63.87
76.91
86.74
93.42
97.29
98.88
98.89
97.95
96.46
94.59
92.27
89.51
86.41
83.25
80.39
78.11
76.48
75.16
73.54
70.91
66.74
60.92
53.84
46.22
38.76
31.87
25.36
18.67
11.04
1.95
-8.58
-20.08
-31.69
-42.65
-52.52
-61.39
-69.76
-78.45
-88.33
-100.12
-114.12
-129.89
-146.05
-160.21
-169.41
-170.89
-162.97
-145.67
-120.83
-91.57
-61.28
-32.77
-7.70
13.40
30.77
44.94
56.43
65.64
72.89
78.54
82.96
86.49
89.38
91.75
93.66
95.09
96.09
96.73
97.13
97.41
97.63
97.76
97.57
96.70
94.77
91.49
86.82
81.01
74.45
67.51
60.42
53.20
45.81
38.24
30.61
23.09
15.71
8.25
0.29
-8.59
-18.62
-29.59
-41.03
-52.33
-63.06
-73.15
-82.95
-93.12
-104.49
-117.74
-133.03
-149.59
-165.54
-178.03
-183.91
-180.67
-167.26
-144.60
-115.31
-82.89
-50.73
-21.27
4.21
25.38
42.34
55.19
63.91
68.60
69.77
68.51
66.23
64.26
63.41
63.75
64.80
66.01
67.12
68.31
69.87
72.00
74.41
76.45
77.37
76.67
74.26
70.32
65.08
58.66
51.06
42.35
32.77
22.82
13.06
3.90
-4.55
-12.50
-20.35
-28.42
-36.89
-45.74
-54.82
-63.94
-72.90
-81.56
-89.81
-97.71
-105.60
-114.10
-123.97
-135.67
-148.82
-161.84
-172.03
-176.28
-172.05
-158.27
-135.80
-107.14
-75.57
-44.21
-15.36
9.73
30.69
47.67
60.99
71.06
78.28
83.12
86.10
87.79
88.71
89.24
89.56
89.61
89.22
88.21
86.60
84.64
82.66
80.92
79.36
77.55
74.84
70.65
64.71
57.23
48.80
40.09
31.63
23.61
15.97
8.50
1.08
-6.27
-13.41
-20.22
-26.70
-32.95
-39.22
-45.86
-53.39
-62.48
-73.80
-87.73
-103.79
-120.37
-134.79
-143.95
-145.22
-137.31
-120.74
-97.52
-70.46
-42.38
-15.50
8.75
29.64
46.91
60.59
70.96
78.46
83.66
87.06
89.06
89.90
89.71
88.60
86.75
84.44
82.02
79.88
78.33
77.54
77.42
77.54
77.23
75.74
72.47
67.28
60.53
52.97
45.45
38.55
32.36
26.49
20.31
13.31
5.30
-3.53
-12.78
-22.12
-31.53
-41.25
-51.82
-63.93
-78.21
-94.90
-113.46
-132.32
-148.86
-159.93
-162.74
-155.79
-139.39
-115.60
-87.55
-58.49
-31.05
-6.84
13.45
29.76
42.37
51.71
58.27
62.54
64.94
65.80
65.36
63.83
61.48
58.67
55.78
53.13
50.79
48.57
45.99
42.48
37.46
30.66
22.11
12.19
1.52
-9.26
-19.61
-29.25
-38.21
-46.73
-55.14
-63.63
-72.17
-80.46
-88.10
-94.86
-100.97
-107.23
-114.82
-124.83
-137.60
-152.09
-165.84
-175.39
-177.36
-169.45
-151.31
-124.58
-92.34
-58.08
-24.77
5.74
32.68
56.06
76.17
93.32
107.81
119.84
129.71
137.65
143.81
148.23
150.80
151.51
150.62
148.73
146.70
145.36
145.20
146.17
147.65
148.69
148.37
146.20
142.26
137.26
132.25
128.24
125.84
125.02
125.09
124.95
123.41
119.56
113.09
104.34
94.20
83.63
73.27
62.99
51.72
37.80
19.56
-3.78
-31.53
-61.32
-89.54
-112.18
-125.88
-128.72
-120.55
-102.92
-78.57
-51.00
-23.80
-0.29
16.94
26.33
27.66
22.04
11.69
-0.71
-12.76
-22.93
-30.83
-36.97
-42.26
-47.39
-52.41
-56.80
-59.68
-60.33
-58.53
-54.79
-50.18
-46.04
-43.56
-43.40
-45.49
-49.18
-53.49
-57.57
-60.98
-63.80
-66.46
-69.45
-73.00
-77.04
-81.21
-85.10
-88.46
-91.34
-94.12
-97.44
-102.08
-108.67
-117.40
-127.53
-137.18
-143.42
-143.01
-133.36
-113.44
-84.31
-48.78
-10.58
26.77
60.75
90.14
114.80
135.23
152.18
166.49
179.04
190.66
201.95
212.97
223.17
231.56
237.15
239.40
238.48
235.13
230.30
224.70
218.50
211.19
201.75
188.95
171.62
149.00
121.09
88.78
53.88
18.88
-13.55
-41.14
-62.40
-76.84
-84.73
-86.89
-84.37
-78.27
-69.72
-59.83
-49.62
-39.90
-31.14
-23.41
-16.49
-10.06
-3.86
2.15
7.92
13.48
19.07
25.18
32.34
40.77
50.22
59.90
68.84
76.24
81.78
85.65
88.30
90.10
91.07
90.82
88.82
84.53
77.56
67.70
54.88
39.23
21.14
1.36
-19.11
-39.15
-57.79
-74.40
-88.75
-100.93
-111.28
-120.29
-128.47
-136.23
-143.83
-151.17
-157.73
-162.74
-165.31
-164.82
-161.24
-155.14
-147.69
-140.24
-133.94
-129.45
-126.77
-125.47
-124.94
-124.57
-123.80
-122.11
-118.98
-114.13
-107.81
-100.93
-94.92
-91.16
-90.39
-92.38
-96.11
-100.31
-103.97
-106.70
-108.45
-109.23
-108.90
-107.14
-103.80
-99.02
-93.31
-87.22
-81.10
-75.06
-69.00
-62.96
-57.19
-52.16
-48.25
-45.66
-44.22
-43.49
-42.94
-42.11
-40.80
-39.02
-36.93
-34.73
-32.46
-29.97
-26.91
-22.95
-17.94
-12.05
-5.70
0.63
6.53
11.77
16.31
20.12
23.15
25.29
26.45
26.66
26.01
24.67
22.90
20.94
19.08
17.67
17.07
17.59
19.43
22.53
26.61
31.06
35.11
37.92
38.82
37.45
33.82
28.22
21.08
12.96
4.54
-3.28
-9.41
-12.90
-13.17
-10.43
-5.53
0.29
5.98
11.01
15.47
19.76
24.15
28.62
32.78
36.17
38.51
39.86
40.58
41.07
41.54
41.96
41.99
41.19
39.25
36.16
32.20
27.84
23.51
19.46
15.72
12.23
9.01
6.31
4.59
4.31
5.74
8.76
12.84
17.27
21.33
24.60
26.99
28.73
30.09
31.17
31.84
31.76
30.73
28.93
26.99
25.73
25.68
26.79
28.35
29.40
29.26
27.86
25.79
23.84
22.51
21.74
21.00
19.63
17.15
13.48
8.83
3.56
-1.99
-7.60
-13.03
-18.05
-22.48
-26.28
-29.62
-32.88
-36.47
-40.72
-45.56
-50.63
-55.24
-58.67
-60.36
-60.00
-57.64
-53.59
-48.39
-42.69
-37.12
-32.20
-28.15
-24.90
-22.15
-19.51
-16.68
-13.56
-10.20
-6.75
-3.43
-0.47
1.84
3.30
3.88
3.86
3.78
4.26
5.67
7.88
10.31
12.14
12.83
12.32
11.11
9.95
9.35
9.33
9.41
8.92
7.38
4.78
1.50
-1.92
-5.08
-7.85
-10.31
-12.53
-14.48
-16.01
-17.11
-17.96
-18.98
-20.59
-22.91
-25.66
-28.21
-29.85
-29.99
-28.36
-24.90
-19.75
-13.03
-5.00
4.04
13.64
23.21
32.22
40.26
47.13
52.88
57.58
61.32
64.09
65.85
66.50
66.00
64.31
61.49
57.59
52.79
47.31
41.42
35.38
29.35
23.44
17.65
12.04
6.69
1.71
-2.81
-6.92
-10.73
-14.41
-17.98
-21.29
-24.09
-26.07
-27.06
-27.07
-26.20
-24.69
-22.71
-20.51
-18.33
-16.44
-15.03
-14.11
-13.47
-12.81
-11.93
-11.01
-10.62
-11.50
-14.18
-18.61
-23.99
-29.04
-32.44
-33.36
-31.62
-27.77
-22.67
-17.13
-11.67
-6.47
-1.51
3.23
7.59
11.32
14.19
16.16
17.48
18.53
19.68
21.05
22.46
23.53
23.91
23.47
22.35
20.92
19.53
18.34
17.22
15.81
13.74
10.83
7.25
3.47
0.09
-2.50
-4.25
-5.53
-6.90
-8.76
-11.16
-13.75
-16.06
-17.85
-19.20
-20.53
-22.34
-24.92
-28.30
-32.29
-36.61
-40.90
-44.75
-47.60
-48.79
-47.75
-44.22
-38.49
-31.29
-23.66
-16.53
-10.45
-5.57
-1.70
1.47
4.14
6.38
8.06
9.02
9.12
8.38
6.96
5.12
3.07
0.93
-1.33
-3.78
-6.42
-9.14
-11.75
-14.02
-15.78
-16.99
-17.69
-17.82
-17.26
-15.89
-13.66
-10.78
-7.74
-5.18
-3.78
-4.00
-5.96
-9.44
-13.81
-18.30
-22.13
-24.72
-25.88
-25.91
-25.50
-25.56
-26.91
-30.00
-34.73
-40.30
-45.41
-48.45
-47.93
-42.91
-33.29
-19.92
-4.38
11.45
25.91
37.88
47.00
53.47
57.82
60.58
62.14
62.74
62.47
61.46
59.87
57.87
55.65
53.35
51.08
48.86
46.73
44.68
42.72
40.83
39.01
37.29
35.63
33.91
32.03
29.92
27.61
25.25
23.03
20.99
18.96
16.59
13.51
9.61
5.12
0.61
-3.30
-6.17
-8.00
-9.15
-10.27
-11.93
-14.46
-17.75
-21.27
-24.21
-25.72
-25.13
-22.16
-16.94
-10.03
-2.17
5.77
13.05
19.17
23.86
27.09
28.99
29.76
29.62
28.78
27.43
25.79
24.00
22.17
20.29
18.31
16.18
13.90
11.59
9.42
7.57
6.15
5.22
4.71
4.45
4.17
3.60
2.51
0.79
-1.47
-4.05
-6.65
-9.06
-11.25
-13.33
-15.57
-18.18
-21.28
-24.73
-28.23
-31.26
-33.23
-33.57
-31.86
-27.93
-22.01
-14.64
-6.58
1.39
8.73
15.22
20.99
26.33
31.42
36.20
40.40
43.61
45.62
46.52
46.75
46.93
47.59
49.04
51.32
54.29
57.72
61.36
64.90
67.91
69.81
70.07
68.35
64.70
59.50
53.30
46.56
39.55
32.26
24.64
16.69
8.42
-0.35
-10.08
-21.57
-35.52
-52.07
-70.44
-88.91
-105.43
-118.29
-126.64
-130.57
-130.75
-127.90
-122.47
-114.67
-104.72
-93.23
-81.20
-69.86
-60.34
-53.36
-49.09
-47.15
-46.64
-46.09
-43.48
-36.53
-23.16
-2.15
26.19
59.87
95.49
128.96
156.55
175.62
185.03
185.30
178.29
166.84
154.13
142.98
135.18
131.07
129.45
128.10
124.58
117.08
104.92
88.67
69.74
49.95
30.95
13.92
-0.74
-13.48
-25.60
-38.74
-54.21
-72.14
-91.09
-108.14
-119.85
-123.32
-117.31
-102.63
-81.78
-58.19
-35.25
-15.53
-0.49
9.49
14.77
16.12
14.33
10.12
4.07
-3.31
-11.51
-19.93
-27.88
-34.68
-39.75
-42.70
-43.44
-42.22
-39.66
-36.60
-33.88
-32.16
-31.85
-33.11
-35.97
-40.40
-46.21
-52.95
-59.82
-65.94
-70.65
-73.95
-76.57
-79.64
-84.13
-90.30
-97.65
-105.16
-112.06
-118.29
-124.61
-132.00
-140.93
-150.59
-158.83
-162.54
-158.65
-145.21
-122.12
-91.21
-55.87
-20.06
12.70
40.03
61.00
75.88
85.65
91.49
94.48
95.46
95.06
93.71
91.59
88.71
84.92
80.12
74.44
68.30
62.26
56.68
51.53
46.27
40.02
32.00
21.73
9.16
-5.59
-22.26
-40.63
-60.24
-80.44
-100.22
-118.53
-134.61
-148.18
-159.46
-168.81
-176.45
-182.22
-185.79
-187.01
-186.12
-183.84
-180.97
-177.93
-174.38
-169.20
-160.75
-147.63
-129.09
-105.37
-77.56
-46.91
-14.06
21.60
61.59
107.27
158.26
211.32
260.57
299.05
321.29
325.16
312.43
287.60
255.74
220.81
185.15
150.16
117.39
88.92
66.67
51.26
41.23
33.59
25.25
14.52
1.94
-10.45
-20.22
-26.06
-28.18
-27.90
-26.70
-25.39
-23.93
-21.68
-18.16
-13.46
-8.29
-3.69
-0.54
0.83
0.72
-0.28
-1.55
-2.84
-4.27
-6.18
-8.78
-12.09
-15.96
-20.29
-25.05
-30.08
-34.84
-38.12
-38.35
-34.18
-25.19
-12.20
3.00
18.28
31.94
43.13
51.83
58.38
63.09
66.08
67.39
67.12
65.60
63.32
60.77
58.23
55.77
53.24
50.48
47.41
44.13
40.88
37.92
35.35
33.07
30.76
28.01
24.46
20.04
15.00
9.92
