1659776064.00
64.000000
-0.00
-0.00
-0.00
-0.00
-0.00
-0.00
-0.00
-0.00
-0.00
-0.00
0.00
0.01
0.01
-0.00
-0.03
-0.05
-0.05
0.00
0.13
0.36
0.66
1.01
1.37
1.72
2.06
2.40
2.79
3.24
3.80
4.42
5.06
5.66
6.20
6.68
7.15
7.68
8.31
9.14
10.09
11.04
11.88
12.56
13.14
13.76
14.65
15.96
17.91
20.32
22.90
25.38
27.58
29.57
31.68
34.32
37.81
42.54
48.15
54.10
59.83
64.97
69.58
74.14
79.34
85.71
93.76
103.00
112.62
121.73
129.77
136.75
143.30
150.75
157.77
166.64
177.95
191.79
206.97
220.57
228.25
225.36
208.53
176.87
132.76
80.05
23.07
-34.94
-92.44
-149.16
-205.23
-260.37
-313.74
-363.87
-409.83
-450.91
-486.50
-515.74
-537.23
-549.22
-549.96
-538.37
-514.21
-478.67
-433.88
-382.45
-327.02
-269.84
-212.63
-156.66
-102.95
-52.37
-5.90
35.58
71.43
101.35
125.50
144.38
158.69
169.15
176.37
180.75
182.57
182.07
179.51
175.23
169.65
163.18
156.15
148.81
141.30
133.69
126.02
118.33
110.69
103.16
95.80
88.68
81.83
75.25
68.95
62.95
57.25
51.86
46.78
42.03
37.59
33.45
29.61
26.07
22.81
19.83
17.11
14.67
12.48
10.54
8.83
7.35
6.07
4.97
4.05
3.27
2.62
2.09
1.65
1.30
1.01
0.79
0.61
0.48
0.37
0.29
0.24
0.20
0.17
0.16
0.16
0.18
0.20
0.22
0.25
0.29
0.33
0.37
0.42
0.46
0.51
0.56
0.61
0.66
0.72
0.78
0.85
0.92
1.00
1.08
1.18
1.29
1.41
1.55
1.70
1.87
2.06
2.27
2.51
2.77
3.05
3.37
3.72
4.09
4.51
4.96
5.45
5.97
6.53
7.14
7.79
8.48
9.21
9.99
10.82
11.69
12.61
13.57
14.60
15.68
16.83
18.04
19.30
20.57
21.85
23.04
24.07
24.80
25.11
24.84
23.87
22.14
19.64
16.44
12.61
8.32
3.73
-0.96
-5.59
-9.97
-13.92
-17.30
-19.96
-21.85
-22.93
-23.32
-23.15
-22.59
-21.81
-20.92
-19.94
-18.84
-17.56
-16.10
-14.57
-13.10
-11.92
-11.17
-10.83
-10.76
-10.67
-10.31
-9.56
-8.57
-7.68
-7.28
-7.68
-8.88
-10.57
-12.21
-13.27
-13.53
-13.18
-12.75
-12.92
-14.20
-16.68
-19.91
-23.19
-25.80
-27.37
-28.10
-28.48
-29.28
-31.35
-35.48
-42.22
-51.38
-61.70
-70.64
-74.92
-71.41
-58.73
-38.00
-12.71
12.58
33.86
48.98
58.01
61.59
61.09
57.88
52.92
46.91
40.63
35.00
30.77
28.16
26.57
25.09
22.75
19.05
14.13
8.66
3.39
-1.24
-5.29
-9.20
-13.61
-19.09
-26.10
-34.65
-44.12
-53.21
-60.18
-63.29
-61.43
-54.46
-43.34
-29.75
-15.49
-1.86
10.41
21.13
30.27
37.70
43.12
46.19
46.76
45.04
41.68
37.51
33.38
29.84
27.00
24.60
22.18
19.35
15.99
12.36
8.86
5.86
3.35
0.96
-1.98
-6.10
-11.84
-19.26
-28.07
-37.74
-47.50
-56.40
-63.32
-67.13
-66.96
-62.51
-54.12
-42.66
-29.25
-14.89
-0.30
13.93
27.26
39.03
48.54
55.22
58.86
59.69
58.26
55.31
51.56
47.55
43.64
39.99
36.54
33.18
29.75
26.15
22.30
18.17
13.69
8.78
3.38
-2.56
-9.07
-16.19
-24.03
-32.71
-42.22
-52.20
-61.81
-69.81
-74.76
-75.46
-71.27
-62.33
-49.53
-34.25
-18.01
-2.16
12.35
24.99
35.53
43.90
50.01
53.77
55.11
54.19
51.42
47.44
42.98
38.58
34.46
30.61
26.88
23.26
19.88
16.96
14.58
12.53
10.28
7.28
3.10
-2.36
-8.97
-16.50
-24.75
-33.44
-42.02
-49.49
-54.48
-55.69
-52.33
-44.49
-33.11
-19.63
-5.44
8.46
21.49
33.30
43.48
51.52
56.84
59.13
58.44
55.33
50.66
45.38
40.40
36.32
33.43
31.60
30.44
29.38
27.92
25.81
23.03
19.73
15.99
11.71
6.61
0.41
-7.06
-15.68
-25.08
-34.67
-43.63
-50.88
-55.20
-55.44
-50.83
-41.30
-27.63
-11.22
6.24
23.22
38.59
51.74
62.34
70.23
75.24
77.23
76.23
72.51
66.62
59.32
51.37
43.34
35.50
27.88
20.45
13.16
6.18
-0.32
-6.23
-11.66
-16.80
-21.81
-26.71
-31.29
-35.43
-39.28
-43.30
-48.09
-54.04
-60.97
-68.14
-74.37
-78.51
-79.70
-77.62
-72.42
-64.60
-54.75
-43.39
-30.84
-17.30
-2.96
11.77
26.11
38.99
49.35
56.52
60.59
62.28
62.72
62.85
63.01
62.93
61.87
59.07
54.01
46.44
36.34
23.77
8.81
-8.20
-26.56
-45.28
-63.31
-80.15
-96.06
-112.11
-129.48
-148.63
-168.74
-187.67
-202.70
-211.56
-213.24
-208.26
-198.22
-184.94
-169.81
-153.41
-135.75
-116.74
-96.55
-75.73
-55.00
-34.98
-15.97
2.05
19.27
35.77
51.42
65.75
78.15
88.14
95.68
101.37
106.28
111.58
117.98
125.36
132.83
139.20
143.56
145.57
145.30
142.82
138.07
130.98
121.98
112.21
103.39
97.06
93.85
93.18
93.62
93.69
92.54
90.14
87.00
83.60
79.95
75.63
70.08
62.94
54.24
44.41
34.18
24.41
15.90
9.07
3.96
0.07
-3.33
-6.89
-10.83
-15.01
-19.10
-22.90
-26.48
-30.15
-34.19
-38.67
-43.36
-47.81
-51.47
-53.80
-54.30
-52.56
-48.39
-41.97
-33.95
-25.27
-16.81
-9.21
-2.63
3.04
7.89
11.71
14.02
14.33
12.46
8.66
3.62
-1.78
-6.81
-11.08
-14.50
-17.20
-19.31
-20.76
-21.33
-20.77
-19.12
-17.00
-15.74
-17.08
-22.65
-33.35
-48.93
-67.96
-88.14
-106.82
-121.55
-130.49
-132.68
-128.06
-117.48
-102.35
-84.29
-64.69
-44.47
-24.14
-4.08
15.09
32.38
46.59
56.69
62.30
63.81
62.29
59.10
55.43
52.02
49.05
46.30
43.51
40.47
37.18
33.67
29.90
25.60
20.27
13.46
4.83
-5.64
-17.59
-30.27
-42.54
-52.92
-59.85
-61.93
-58.29
-48.90
-34.67
-17.43
0.57
17.05
30.30
39.47
44.69
46.78
46.86
45.90
44.51
42.91
41.16
39.37
37.71
36.32
35.11
33.64
31.28
27.48
22.06
15.34
7.96
0.61
-6.30
-12.84
-19.39
-26.48
-34.50
-43.56
-53.47
-63.72
-73.49
-81.72
-87.17
-88.72
-85.64
-77.84
-65.97
-51.14
-34.64
-17.55
-0.68
15.38
30.11
42.99
53.52
61.43
66.77
69.92
71.43
71.80
71.34
70.10
68.05
65.12
61.41
57.09
52.35
47.33
42.07
36.62
31.04
25.49
20.13
15.01
9.97
4.62
-1.58
-9.07
-17.90
-27.51
-36.69
-43.73
-46.93
-45.14
-38.12
-26.68
-12.33
3.13
18.20
31.86
43.62
53.21
60.40
64.93
66.62
65.56
62.19
57.26
51.58
45.84
40.44
35.43
30.56
25.43
19.66
13.04
5.58
-2.41
-10.49
-18.23
-25.38
-32.04
-38.57
-45.49
-53.30
-62.44
-73.12
-85.22
-98.20
-110.87
-121.55
-128.29
-129.40
-124.00
-112.38
-95.92
-76.70
-56.78
-37.65
-20.01
-3.98
10.53
23.39
34.17
42.42
47.95
51.08
52.53
53.19
53.74
54.50
55.49
56.50
57.28
57.59
57.22
56.05
54.23
52.15
50.43
49.64
50.01
51.17
52.13
51.41
47.51
39.30
26.56
10.40
-6.64
-20.97
-28.93
-28.15
-18.65
-3.11
14.10
28.64
37.97
42.12
43.22
44.02
46.42
50.71
55.83
60.23
62.68
62.64
60.15
55.59
49.69
43.56
38.57
35.91
35.95
37.79
39.55
39.19
35.38
28.03
18.22
7.60
-2.18
-9.82
-14.54
-16.14
-15.00
-12.09
-8.52
-4.98
-1.07
4.76
14.71
30.55
52.76
80.15
110.27
140.33
168.01
191.93
211.62
227.09
238.31
244.89
245.99
240.53
227.67
207.19
179.76
146.82
110.10
71.22
31.43
-8.24
-46.74
-82.80
-114.98
-141.97
-163.05
-178.19
-188.00
-193.34
-194.99
-193.21
-187.85
-178.87
-167.03
-154.57
-145.07
-142.23
-148.06
-161.59
-179.06
-195.83
-208.71
-217.43
-224.01
-230.67
-237.54
-241.96
-239.92
-228.52
-207.97
-181.63
-154.30
-129.83
-109.79
-93.83
-81.14
-72.00
-68.27
-72.48
-86.33
-109.40
-138.76
-169.61
-196.71
-215.95
-225.34
-225.29
-217.92
-206.10
-192.29
-177.82
-162.74
-146.22
-127.29
-105.57
-81.67
-56.94
-32.90
-10.47
10.24
29.64
47.90
64.44
77.83
86.49
89.49
87.19
81.15
73.48
66.09
59.95
55.06
50.71
45.98
40.28
33.63
26.70
20.46
15.70
12.47
10.02
7.18
3.00
-2.80
-9.86
-17.62
-25.75
-34.28
-43.21
-51.98
-59.19
-63.07
-62.22
-56.48
-47.05
-36.09
-25.77
-17.64
-12.38
-10.10
-10.77
-14.38
-20.74
-29.04
-37.76
-44.90
-48.69
-48.27
-43.94
-36.97
-28.89
-20.96
-13.91
-8.02
-3.56
-1.01
-1.08
-4.37
-11.10
-20.92
-32.82
-45.40
-57.03
-66.11
-71.29
-71.67
-66.96
-57.48
-43.89
-26.88
-6.78
16.54
43.69
75.34
111.63
151.61
192.94
232.12
265.32
289.45
303.11
306.93
303.19
294.91
284.63
273.67
261.78
247.71
230.01
207.99
182.22
154.38
126.58
100.47
76.73
55.04
34.83
16.11
-0.05
-11.84
-17.62
-16.87
-10.66
-1.16
9.36
19.42
28.71
37.71
46.91
56.14
64.42
70.33
72.75
71.37
66.96
61.05
55.39
51.33
49.34
48.96
49.14
48.74
47.10
44.09
40.01
35.08
29.13
21.58
11.67
-1.07
-16.52
-33.87
-51.79
-68.63
-82.73
-92.58
-97.01
-95.35
-87.52
-74.04
-55.85
-34.20
-10.52
13.65
36.71
57.20
74.27
87.88
98.84
108.28
116.92
124.46
129.60
130.78
127.19
119.60
110.38
102.70
99.07
100.36
105.40
111.59
115.82
115.47
108.85
95.36
75.54
51.12
24.95
0.70
-17.98
-28.45
-29.94
-23.63
-12.11
1.78
15.89
29.14
41.29
52.29
61.85
69.38
74.25
76.23
75.66
73.27
69.76
65.36
59.59
51.29
39.04
21.70
-1.09
-28.70
-59.51
-91.27
-121.60
-148.30
-169.91
-185.79
-196.35
-202.86
-207.10
-210.76
-214.68
-218.42
-220.23
-217.65
-208.50
-191.95
-168.94
-141.99
-114.28
-88.60
-66.67
-48.94
-35.07
-24.41
-16.35
-10.36
-5.86
-2.12
1.57
5.67
10.15
14.38
17.49
18.68
17.64
14.74
10.86
7.10
4.24
2.42
1.00
-1.19
-5.33
-12.07
-21.11
-31.16
-40.38
-46.99
-49.77
-48.46
-43.66
-36.56
-28.46
-20.33
-12.63
-5.24
2.27
10.34
18.98
27.70
35.55
41.51
44.86
45.35
43.33
39.45
34.48
29.04
23.62
18.48
13.83
9.79
6.41
3.65
1.39
-0.62
-2.69
-5.20
-8.56
-13.07
-18.91
-25.96
-33.74
-41.40
-47.94
-52.35
-53.88
-52.21
-47.50
-40.28
-31.35
-21.56
-11.67
-2.26
6.25
13.58
19.48
23.67
25.93
26.18
24.65
21.88
18.63
15.59
13.11
11.05
8.98
6.38
3.07
-0.76
-4.66
-8.24
-11.45
-14.63
-18.41
-23.37
-29.90
-38.08
-47.68
-58.12
-68.53
-77.69
-84.24
-87.07
-85.64
-80.29
-72.13
-62.64
-53.12
-44.37
-36.56
-29.49
-22.89
-16.64
-10.83
-5.62
-1.08
2.87
6.40
9.67
12.77
15.65
18.19
20.11
21.22
21.29
20.24
18.07
14.79
10.41
4.93
-1.64
-9.24
-17.79
-27.17
-37.26
-47.84
-58.54
-68.78
-77.69
-84.29
-87.61
-86.95
-82.06
-73.20
-61.14
-46.92
-31.65
-16.16
-0.88
14.07
28.74
43.03
56.54
68.60
78.49
85.82
90.60
93.28
94.52
94.96
95.05
95.08
95.15
95.27
95.33
94.99
93.66
90.70
85.50
77.82
67.94
56.57
44.62
32.86
21.50
10.24
-1.48
-14.03
-27.14
-39.79
-50.43
-57.57
-60.28
-58.60
-53.38
-45.95
-37.61
-29.13
-20.74
-12.25
-3.50
5.38
13.85
21.13
26.58
29.95
31.46
31.70
31.32
30.83
30.53
30.54
30.91
31.62
32.61
33.69
34.68
35.47
36.06
36.54
36.88
36.90
36.23
34.46
31.20
26.23
19.51
11.34
2.47
-5.71
-11.46
-13.09
-9.70
-1.58
9.83
22.50
34.59
44.99
53.39
59.91
64.70
67.67
68.63
67.47
64.44
60.01
54.74
49.05
43.13
36.99
30.52
23.61
16.14
8.11
-0.40
-9.12
-17.79
-26.20
-34.41
-42.67
-51.38
-60.83
-71.06
-81.96
-93.29
-104.80
-116.17
-126.88
-135.99
-142.32
-144.72
-142.50
-135.71
-125.09
-111.79
-96.85
-81.04
-64.74
-48.24
-32.04
-16.86
-3.57
7.14
14.97
20.11
23.11
24.74
25.78
26.99
28.98
32.16
36.61
41.96
47.37
51.73
54.09
53.89
51.18
46.37
39.89
32.02
22.82
12.40
1.14
-10.28
-21.25
-31.68
-42.26
-54.13
-67.98
-83.07
-97.13
-107.12
-110.74
-107.74
-99.98
-90.16
-79.78
-67.87
-51.44
-27.50
4.57
41.77
78.45
108.88
129.90
142.07
148.60
152.93
156.55
158.37
155.76
146.40
129.92
108.34
85.33
64.98
50.49
43.62
44.66
52.56
65.17
79.42
91.45
97.05
92.63
76.32
49.11
15.17
-19.11
-46.91
-63.24
-66.58
-59.14
-45.63
-31.16
-19.44
-11.92
-8.28
-7.53
-9.14
-13.40
-20.96
-32.00
-45.55
-59.53
-71.42
-79.19
-82.05
-80.61
-76.34
-70.77
-64.70
-57.98
-49.90
-39.78
-27.67
-14.58
-2.27
7.37
12.99
14.21
11.56
6.09
-1.21
-9.72
-19.13
-29.04
-38.77
-47.14
-52.92
-55.28
-54.16
-50.28
-44.80
-38.88
-33.24
-28.12
-23.47
-19.25
-15.64
-13.09
-12.04
-12.64
-14.42
-16.31
-16.94
-15.17
-10.52
-3.37
5.24
14.06
22.10
28.85
34.14
37.92
40.01
40.11
37.99
33.63
27.38
19.78
11.35
2.43
-6.77
-15.96
-24.53
-31.48
-35.70
-36.27
-32.92
-26.14
-17.10
-7.34
1.54
8.13
11.36
10.60
5.76
-2.60
-13.21
-24.30
-33.82
-39.96
-41.46
-37.95
-30.14
-19.60
-8.49
1.14
7.93
11.62
12.96
13.30
13.77
14.79
15.83
15.80
13.62
8.83
1.94
-5.64
-11.94
-14.98
-13.29
-6.32
5.46
20.81
38.22
56.50
75.14
94.41
114.95
137.19
160.62
183.34
202.02
212.45
210.68
194.42
164.25
123.99
79.81
38.43
5.07
-17.84
-30.55
-34.92
-32.95
-25.81
-14.00
1.88
20.38
38.99
54.62
64.48
66.58
60.08
45.24
23.31
-3.37
-31.58
-57.63
-78.13
-90.82
-95.00
-91.55
-82.22
-69.06
-53.92
-38.50
-24.46
-13.53
-7.02
-5.40
-7.82
-12.35
-16.67
-19.07
-19.14
-17.86
-16.98
-18.03
-21.71
-27.58
-34.54
-41.42
-47.53
-52.80
-57.64
-62.77
-69.05
-77.40
-88.62
-103.07
-120.15
-137.98
-153.43
-163.02
-164.19
-156.52
-142.05
-124.47
-107.52
-93.48
-82.45
-72.98
-63.27
-52.30
-40.18
-27.60
-15.02
-2.30
11.11
25.44
40.12
53.78
64.96
72.88
77.90
81.38
85.06
90.35
97.78
106.95
116.68
125.58
132.43
136.63
138.22
137.73
135.64
131.97
126.23
117.67
105.93
91.63
76.52
62.96
52.97
47.30
45.06
44.19
42.48
38.70
33.10
27.17
22.82
21.60
24.37
31.66
44.01
61.92
85.21
111.97
138.27
158.79
168.61
165.08
148.84
123.40
93.41
62.83
33.73
6.32
-19.94
-45.29
-69.03
-89.91
-106.82
-119.54
-128.95
-136.46
-143.24
-149.49
-154.17
-155.43
-151.57
-141.97
-127.68
-111.14
-95.18
-81.80
-71.40
-62.83
-54.34
-44.65
-33.75
-22.76
-13.17
-5.86
-0.48
4.33
10.18
18.06
27.75
37.95
46.76
52.46
54.07
51.47
45.29
36.50
26.07
14.61
2.44
-10.36
-23.56
-36.65
-48.75
-58.83
-66.04
-70.14
-71.55
-71.19
-70.09
-68.89
-67.66
-65.94
-63.08
-58.56
-52.29
-44.67
-36.53
-28.88
-22.73
-18.80
-17.35
-18.13
-20.35
-23.02
-25.27
-26.65
-27.10
-26.83
-25.98
-24.44
-21.90
-18.16
-13.31
-7.85
-2.46
2.28
6.07
8.93
10.86
11.49
9.88
4.85
-4.51
-18.07
-34.41
-51.06
-65.33
-75.19
-79.99
-80.28
-77.31
-72.18
-65.36
-56.80
-46.34
-34.21
-21.24
-8.58
2.71
11.98
19.10
24.27
27.79
29.95
31.00
31.15
30.64
29.75
28.72
27.70
26.72
25.48
23.40
19.69
13.73
5.56
-3.84
-12.71
-18.95
-20.97
-18.26
-11.45
-1.96
8.69
19.38
29.58
39.11
47.84
55.49
61.64
65.98
68.38
68.99
68.07
65.87
62.64
58.69
54.33
49.88
45.49
41.12
36.61
31.84
26.87
21.93
17.24
12.74
8.04
2.47
-4.56
-13.09
-22.42
-31.22
-37.93
-41.21
-40.39
-35.57
-27.45
-17.05
-5.43
6.52
18.13
28.89
38.40
46.30
52.28
56.16
57.92
57.81
56.37
54.30
52.30
50.85
50.06
49.61
48.99
47.75
45.72
43.03
39.94
36.55
32.64
27.74
21.30
13.00
2.94
-8.25
-19.55
-29.65
-37.15
-40.78
-39.66
-33.54
-22.95
-9.10
6.40
22.08
36.99
50.86
63.92
76.47
88.55
99.81
109.63
117.35
122.64
125.66
127.15
128.38
130.90
136.13
144.58
155.25
165.38
170.86
167.37
151.72
122.86
82.26
33.47
-18.81
-69.77
-115.27
-152.45
-179.99
-198.08
-208.10
-211.86
-210.85
-205.71
-196.24
-182.08
-163.43
-141.63
-119.05
-98.50
-82.43
-72.36
-68.74
-71.02
-77.89
-87.52
-97.69
-106.15
-110.98
-111.17
-106.77
-98.84
-88.96
-78.65
-68.99
-60.47
-53.14
-46.84
-41.31
-36.17
-31.03
-25.57
-19.83
-14.31
-9.86
-7.29
-6.97
-8.68
-11.72
-15.33
-18.92
-22.18
-24.83
-26.34
-25.90
-22.60
-15.83
-5.66
7.17
21.49
36.13
50.16
63.03
74.39
83.99
91.56
96.86
99.79
100.51
99.40
97.07
94.18
91.38
89.20
87.96
87.69
88.14
88.79
89.04
88.33
86.28
82.75
77.84
71.71
64.56
56.46
47.26
36.52
23.56
7.49
-12.50
-36.79
-64.89
-95.13
-124.76
-150.52
-169.53
-180.21
-182.71
-178.75
-170.82
-161.19
-151.23
-141.20
-130.75
-119.29
-106.52
-92.41
-76.98
-60.19
-41.84
-21.95
-0.99
19.97
39.48
56.14
69.01
77.91
83.24
85.76
86.23
85.11
82.55
78.42
72.48
64.56
54.64
42.88
29.72
15.89
2.39
-9.51
-18.49
-23.47
-23.89
-19.93
-12.61
-3.42
6.12
14.96
22.81
29.99
37.13
44.64
52.45
60.03
66.77
72.24
76.37
79.39
81.57
83.14
84.03
84.05
82.92
80.38
76.30
70.64
63.53
55.29
46.34
37.14
28.04
19.19
10.57
2.02
-6.67
-15.66
-25.08
-34.93
-44.89
-54.19
-61.64
-65.93
-66.01
-61.61
-53.37
-42.63
-30.96
-19.58
-9.11
0.37
8.99
16.80
23.56
28.89
32.42
33.89
33.30
30.85
26.90
21.93
16.46
10.93
5.62
0.48
-4.73
-10.33
-16.50
-23.18
-30.03
-36.66
-42.75
-48.20
-53.20
-58.13
-63.42
-69.41
-76.20
-83.53
-90.62
-96.39
-99.65
-99.48
-95.52
-88.08
-77.87
-65.76
-52.46
-38.45
-24.13
-9.93
3.57
15.73
25.94
33.73
38.97
41.71
42.29
41.31
39.56
37.85
36.79
36.53
36.72
36.79
36.25
35.10
33.81
33.13
33.71
35.74
38.84
42.12
44.37
44.23
40.46
32.21
19.34
2.77
-15.40
-32.25
-44.79
-50.87
-49.94
-43.11
-32.62
-20.98
-10.07
-0.78
6.87
13.24
18.65
23.09
26.35
28.24
28.79
28.30
27.18
25.77
24.20
22.46
20.49
18.32
16.02
13.67
11.31
8.87
6.22
3.32
0.22
-2.98
-6.23
-9.65
-13.55
-18.44
-24.79
-32.94
-42.83
-53.79
-64.58
-73.46
-78.67
-78.88
-73.64
-63.62
-50.29
-35.49
-20.79
-7.21
4.85
15.28
23.99
30.69
35.04
36.93
36.64
34.82
32.34
29.92
27.90
26.18
24.41
22.21
19.44
16.32
13.37
11.20
10.31
10.84
12.55
14.88
17.10
18.41
18.13
15.71
10.98
4.24
-3.54
-10.81
-15.73
-16.80
-13.29
-5.54
5.24
17.48
29.78
41.19
51.12
59.10
64.73
67.67
68.02
66.45
64.11
62.17
61.22
61.06
60.90
59.90
57.58
53.93
49.13
43.32
36.40
28.19
18.67
8.06
-3.37
-15.38
-27.79
-40.08
-51.15
-59.30
-62.72
-60.23
-51.93
-39.33
-24.91
-11.40
-1.03
5.02
6.83
5.68
3.55
2.39
3.38
6.51
10.78
14.85
17.73
19.13
19.20
17.93
14.86
9.40
1.49
-7.81
-16.50
-22.44
-24.52
-23.21
-20.45
-18.69
-19.86
-24.80
-33.17
-43.95
-55.89
-67.79
-78.59
-87.43
-93.77
-97.45
-98.67
-97.68
-94.55
-89.01
-80.65
-69.35
-55.57
-40.39
-25.30
-11.61
-0.17
8.78
15.42
20.10
23.15
24.77
25.13
24.39
22.80
20.64
18.20
15.76
13.42
11.12
8.53
5.14
0.43
-5.88
-13.55
-21.77
-29.37
-35.16
-38.28
-38.41
-35.69
-30.51
-23.38
-14.90
-5.74
3.36
11.76
19.20
25.95
32.70
40.13
48.36
56.72
63.81
67.97
67.86
62.88
53.27
39.97
24.37
8.18
-6.82
-18.99
-27.18
-30.96
-30.82
-27.97
-24.07
-20.68
-18.85
-18.71
-19.46
-19.58
-17.33
-11.24
-0.64
14.14
31.90
50.86
69.10
85.02
97.44
105.68
109.41
108.68
103.85
95.61
84.85
72.45
59.15
45.39
31.39
17.26
3.23
-10.31
-22.82
-33.75
-42.75
-49.81
-55.28
-59.76
-63.87
-68.02
-72.10
-75.43
-76.79
-74.69
-67.79
-55.34
-37.55
-15.55
8.80
33.49
56.75
77.33
94.36
107.24
115.44
118.66
117.08
111.62
103.72
94.88
86.04
77.27
67.96
57.42
45.44
32.58
19.78
7.88
-2.89
-12.96
-23.12
-34.11
-46.33
-59.87
-74.47
-89.61
-104.49
-117.99
-128.84
-135.98
-138.85
-137.62
-133.01
-126.04
-117.62
-108.48
-99.13
-90.05
-81.77
-74.72
-69.09
-64.75
-61.25
-58.06
-54.76
-51.15
-47.26
-43.14
-38.87
-34.48
-30.04
-25.69
-21.75
-18.69
-17.08
-17.49
-20.27
-25.43
-32.41
-40.08
-46.79
-50.73
-50.34
-44.66
-33.58
-17.76
1.53
22.73
44.25
64.78
83.34
99.33
112.59
123.12
131.13
136.92
140.89
143.56
145.44
146.91
148.16
149.18
149.96
150.76
152.17
154.87
159.22
164.77
170.15
173.60
173.75
170.68
166.12
162.98
163.92
169.82
178.85
186.89
188.83
180.51
160.07
128.57
89.58
48.29
10.46
-18.58
-34.96
-37.11
-26.23
-6.25
17.22
38.34
52.51
57.13
51.50
35.95
10.95
-23.21
-66.23
-116.98
-172.73
-228.78
-278.82
-316.17
-335.72
-335.79
-319.10
-292.26
-263.89
-241.83
-230.83
-231.56
-241.16
-254.93
-268.18
-277.55
-281.29
-278.93
-270.51
-256.18
-236.17
-211.08
-182.32
-152.15
-123.37
-98.52
-79.00
-64.65
-53.85
-44.45
-34.82
-24.50
-14.31
-5.62
0.52
4.03
5.72
6.78
8.05
9.52
10.47
9.86
6.91
1.42
-6.16
-14.98
-23.98
-31.95
-37.65
-39.85
-37.47
-30.03
-17.87
-2.22
15.11
32.25
47.83
61.17
72.32
81.69
89.91
97.57
105.19
113.15
121.54
130.05
138.00
144.30
147.78
147.52
143.13
134.83
123.31
109.51
94.22
77.87
60.41
41.48
20.85
-1.17
-23.50
-44.74
-63.78
-80.39
-95.21
-108.93
-121.18
-129.95
-131.98
-124.12
-105.14
-76.74
-43.32
-10.53
16.78
36.16
47.95
54.65
59.68
65.97
75.02
86.70
99.51
111.15
119.16
121.52
117.16
106.37
90.69
72.47
53.96
36.50
20.28
4.59
-11.29
-27.48
-43.28
-57.66
-69.93
-80.12
-88.83
-96.44
-102.41
-105.34
-103.53
-96.05
-83.34
-66.92
-48.59
-29.50
-9.60
12.14
36.96
65.38
96.71
128.97
159.39
185.17
204.18
215.49
219.60
218.27
213.84
208.30
202.38
194.79
182.61
162.43
132.18
92.64
47.79
3.74
-33.34
-59.28
-73.05
-76.55
-73.39
-67.44
-61.78
-58.39
-58.18
-61.13
-66.38
-72.17
-76.19
-76.18
-70.57
-59.01
-42.38
-22.33
-0.68
21.11
41.99
61.42
79.00
94.34
106.95
116.32
122.05
124.14
123.17
120.25
116.79
113.97
112.29
111.50
110.86
109.69
107.81
105.52
103.28
101.23
98.91
95.41
89.70
81.07
69.30
54.57
37.24
17.80
-3.07
-24.44
-45.04
-63.26
-77.50
-86.20
-88.00
-81.79
-67.02
-43.92
-13.97
20.02
53.96
82.76
101.16
104.58
90.13
57.54
9.65
-47.73
-106.83
-159.46
-198.88
-221.20
-226.12
-216.55
-197.53
-174.75
-153.08
-135.77
-124.26
-118.69
-118.39
-122.26
-128.79
-135.82
-140.87
-141.75
-137.39
-128.51
-117.35
-106.64
-98.35
-92.57
-87.60
-80.79
-69.75
-53.46
-32.50
-8.71
15.59
38.37
58.29
74.74
87.61
97.02
103.08
105.85
105.58
102.84
98.57
93.87
89.71
86.55
84.22
82.07
79.24
74.99
68.96
61.19
52.10
42.32
32.53
23.28
14.80
7.00
-0.53
-8.35
-16.88
-26.13
-35.49
-43.83
-49.79
-52.24
-50.65
-45.42
-37.53
-28.29
-18.81
-9.67
-1.02
7.23
15.10
22.34
28.50
33.20
36.24
37.79
38.13
37.61
36.44
34.72
32.53
29.95
27.07
23.82
20.02
15.39
9.75
3.13
-4.21
-11.84
-19.40
-26.69
-33.65
-40.38
-47.02
-53.72
-60.50
-67.26
-73.61
-78.88
-82.14
-82.50
-79.38
-72.78
-63.25
-51.70
-39.18
-26.53
-14.41
-3.18
6.92
15.76
23.28
29.45
34.27
37.76
39.96
40.99
41.10
40.57
39.69
38.67
37.56
36.29
34.67
32.52
29.67
26.05
21.72
16.89
11.83
6.82
1.99
-2.72
-7.65
-13.23
-19.96
-28.09
-37.54
-47.69
-57.44
-65.36
-70.03
-70.48
-66.45
-58.46
-47.62
-35.26
-22.48
-9.99
1.86
12.94
23.08
32.04
39.48
45.14
48.91
50.81
51.00
49.69
47.12
43.60
39.53
35.36
31.44
27.95
24.78
21.65
18.28
14.49
10.30
5.82
1.11
-3.86
-9.19
-15.02
-21.47
-28.60
-36.49
-45.11
-54.14
-62.81
-69.91
-74.08
-74.20
-69.85
-61.42
-50.01
-36.98
-23.54
-10.56
1.48
12.38
21.97
30.04
36.31
40.54
42.59
42.61
40.98
38.36
35.45
32.80
30.65
28.87
27.06
24.78
21.70
17.79
13.18
8.20
3.16
-1.74
-6.46
-11.21
-16.31
-22.19
-29.20
-37.47
-46.75
-56.42
-65.42
-72.52
-76.53
-76.51
-72.10
-63.54
-51.71
-37.86
-23.38
-9.37
3.51
15.10
25.54
34.95
43.17
49.73
54.06
55.83
55.20
52.84
49.67
46.43
43.46
40.66
37.66
34.25
30.40
26.34
22.27
18.21
13.98
9.31
4.01
-1.94
-8.45
-15.45
-23.00
-31.20
-40.05
-49.08
-57.33
-63.42
-65.91
-63.85
-57.10
-46.44
-33.33
-19.45
-6.19
5.65
15.80
24.29
31.09
35.98
38.64
38.87
36.82
33.03
28.32
23.55
19.36
16.09
13.75
12.07
10.59
8.71
5.87
1.68
-3.92
-10.67
-18.12
-25.86
-33.71
-41.80
-50.35
-59.50
-68.98
-78.02
-85.52
-90.24
-91.22
-87.93
-80.41
-69.13
-54.91
-38.73
-21.55
-4.27
12.31
27.50
40.62
51.15
58.72
63.31
65.29
65.33
64.21
62.47
60.25
57.36
53.54
48.85
43.74
38.94
34.96
31.79
28.78
24.97
19.48
11.92
2.43
-8.40
-19.82
-30.95
-40.80
-48.25
-52.18
-51.75
-46.73
-37.71
-25.95
-12.96
-0.04
12.16
23.57
34.42
44.76
54.18
61.85
66.80
68.49
67.01
63.12
57.94
52.52
47.55
43.24
39.42
35.81
32.23
28.59
24.95
21.32
17.66
13.74
9.22
3.77
-2.89
-10.92
-20.30
-30.84
-41.98
-52.72
-61.57
-66.85
-67.13
-61.87
-51.58
-37.75
-22.31
-6.89
7.51
20.48
31.83
41.18
47.89
51.30
51.18
48.01
42.90
37.19
31.97
27.74
24.36
21.32
18.08
14.39
10.30
6.05
1.86
-2.22
-6.36
-10.80
-15.81
-21.54
-28.12
-35.66
-44.17
-53.44
-62.80
-71.02
-76.49
-77.71
-73.75
-64.67
-51.54
-36.02
-19.93
-4.74
8.62
19.70
28.44
35.01
39.74
43.03
45.29
46.84
47.84
48.37
48.46
48.14
47.37
45.91
43.41
39.50
34.07
27.44
20.43
13.94
8.62
4.54
1.18
-2.32
-6.75
-12.66
-20.23
-29.28
-39.35
-49.59
-58.75
-65.29
-67.66
-64.81
-56.60
-43.95
-28.53
-12.29
3.20
17.00
28.89
39.05
47.74
54.96
60.46
63.79
64.63
62.89
58.84
53.02
46.19
39.04
32.09
25.55
19.38
13.36
7.27
0.92
-5.67
-12.40
-19.13
-25.77
-32.33
-38.96
-45.84
-53.18
-61.16
-69.87
-79.20
-88.63
-97.19
-103.41
-105.68
-102.70
-93.89
-79.58
-60.98
-39.72
-17.46
4.46
25.11
43.85
60.21
73.75
84.16
91.34
95.48
97.07
96.80
95.42
93.53
91.40
88.88
85.45
80.39
73.17
63.70
52.44
40.29
28.27
17.15
7.16
-1.87
-10.49
-19.29
-28.75
-39.09
-50.17
-61.44
-71.85
-80.00
-84.42
-83.99
-78.31
-67.89
-53.92
-37.97
-21.55
-5.76
8.61
21.06
31.12
38.34
42.37
43.10
40.86
36.46
31.00
25.60
21.03
17.54
14.79
12.08
8.67
4.09
-1.67
-8.18
-14.81
-21.04
-26.62
-31.69
-36.67
-42.08
-48.42
-56.06
-65.09
-75.20
-85.40
-94.10
-99.29
-99.06
-92.34
-79.22
-61.12
-40.22
-18.77
1.46
19.59
35.38
48.95
60.38
69.57
76.24
80.21
81.53
80.63
78.19
74.98
71.61
68.34
65.07
61.46
57.14
51.93
45.84
39.09
31.92
24.51
16.91
9.06
0.91
-7.61
-16.51
-25.86
-35.82
-46.50
-57.75
-68.84
-78.35
-84.40
-85.20
-79.67
-67.91
-51.23
-31.75
-11.68
7.25
24.08
38.59
50.92
61.30
69.74
76.08
80.03
81.41
80.34
77.22
72.78
67.86
63.16
59.10
55.71
52.75
49.82
46.51
42.49
37.54
31.53
24.47
16.43
7.60
-1.83
-11.71
-22.07
-33.15
-45.29
-58.65
-72.85
-86.77
-98.57
-106.10
-107.56
-102.11
-90.18
-73.41
-54.15
-34.74
-16.95
-1.74
10.68
20.52
27.98
33.18
36.14
37.00
36.13
34.22
32.13
30.55
29.80
29.72
29.80
29.35
27.88
25.17
21.38
16.94
12.27
7.73
3.36
-1.05
-5.86
-11.39
-17.92
-25.64
-34.69
-44.99
-56.04
-66.65
-75.00
-78.98
-76.92
-68.26
-53.87
-35.82
-16.62
1.51
17.23
30.11
40.35
48.33
54.30
58.30
60.27
60.24
58.43
55.35
51.63
47.86
44.38
41.19
37.99
34.32
29.86
24.60
18.81
12.94
7.28
1.83
-3.74
-9.94
-17.30
-26.13
-36.46
-48.07
-60.50
-73.02
-84.58
-93.82
-99.28
-99.77
-94.74
-84.53
-70.30
-53.68
-36.27
-19.23
-3.14
11.85
25.62
37.89
48.06
55.49
59.73
60.92
59.76
57.43
55.22
54.11
54.45
55.94
57.77
58.94
58.61
56.23
51.68
45.14
36.96
27.63
17.66
7.36
-3.30
-14.62
-26.99
-40.42
-54.10
-66.30
-74.87
-77.87
-74.40
-64.87
-50.75
-33.96
-16.13
1.71
18.87
34.73
48.49
59.15
65.83
68.14
66.28
60.96
53.18
43.96
33.98
23.59
12.79
1.49
-10.31
-22.35
-34.14
-45.09
-54.89
-63.63
-71.81
-80.20
-89.51
-100.04
-111.54
-123.18
-133.65
-141.31
-144.50
-141.84
-132.61
-116.95
-96.03
-71.76
-46.39
-21.82
0.69
20.62
37.94
52.75
65.03
74.67
81.62
86.01
88.22
88.71
87.90
86.16
83.74
80.87
77.69
74.19
70.13
65.17
59.00
51.50
42.83
33.29
23.20
12.82
2.37
-7.95
-18.03
-27.94
-38.08
-49.08
-61.38
-74.83
-88.24
-99.55
-106.40
-106.87
-100.29
-87.45
-70.24
-50.97
-31.59
-13.26
3.51
18.63
31.97
43.27
52.23
58.79
63.15
65.65
66.62
66.19
64.37
61.25
57.16
52.72
48.68
45.63
43.71
42.62
41.64
39.94
36.86
32.07
25.76
18.45
10.88
3.69
-2.79
-8.62
-14.28
-20.44
-27.81
-36.78
-47.21
-58.21
-68.19
-75.08
-76.94
-72.58
-61.99
-46.45
-28.12
-9.37
7.92
22.76
35.01
45.07
53.41
60.31
65.79
69.74
72.01
72.63
71.79
69.83
67.11
63.98
60.65
57.21
53.71
50.18
46.62
42.96
39.08
34.74
29.70
23.90
17.51
10.96
4.66
-1.17
-6.72
-12.50
-19.17
-27.23
-36.64
-46.69
-56.02
-62.91
-65.62
-63.03
-54.98
-42.40
-27.15
-11.32
3.24
15.54
25.37
33.12
39.19
43.73
46.59
47.52
46.46
43.68
39.78
35.52
31.59
28.39
26.07
24.50
23.39
22.34
20.98
19.00
16.19
12.49
7.89
2.47
-3.71
-10.48
-17.58
-24.73
-31.81
-38.96
-46.42
-54.18
-61.74
-67.85
-71.01
-69.90
-64.10
-54.21
-41.66
-28.13
-14.97
-2.98
7.51
16.39
23.47
28.57
31.64
32.88
32.71
31.51
29.61
27.20
24.43
21.51
18.67
16.11
13.88
11.82
9.62
6.93
3.56
-0.46
-4.92
-9.61
-14.37
-19.17
-24.02
-29.00
-34.16
-39.52
-45.06
-50.57
-55.57
-59.42
-61.36
-60.70
-57.07
-50.48
-41.38
-30.57
-19.02
-7.60
3.01
12.43
20.53
27.28
32.69
36.63
38.91
39.37
38.08
35.38
31.85
28.18
24.82
21.98
19.62
17.48
15.25
12.64
9.54
5.97
2.12
-1.81
-5.75
-9.78
-14.09
-18.85
-24.13
-29.87
-36.02
-42.52
-49.17
-55.53
-60.77
-63.84
-63.67
-59.68
-51.98
-41.44
-29.28
-16.78
-4.83
6.03
15.51
23.48
29.72
33.99
36.13
36.21
34.49
31.53
28.00
24.58
21.75
19.74
18.42
17.40
16.19
14.22
11.18
7.04
2.03
-3.49
-9.19
-14.92
-20.66
-26.43
-32.24
-38.01
-43.75
-49.53
-55.46
-61.38
-66.66
-70.17
-70.67
-67.27
-59.98
-49.76
-38.12
-26.52
-15.88
-6.44
1.94
9.47
16.08
21.46
25.27
27.28
27.55
26.36
24.22
21.74
19.55
18.17
17.81
18.28
18.99
19.22
18.38
16.22
12.88
8.75
4.29
-0.03
-3.88
-7.03
-9.49
-11.56
-13.77
-16.82
-21.11
-26.45
-31.82
-35.62
-36.12
-32.11
-23.31
-10.51
4.82
21.04
36.75
51.07
63.55
73.99
82.33
88.67
93.35
97.02
100.51
104.61
109.78
115.96
122.63
129.06
134.58
138.88
142.06
144.39
145.98
146.30
143.94
136.71
122.25
98.82
66.04
25.27
-20.79
-68.82
-115.78
-159.53
-198.99
-233.71
-263.29
-286.91
-303.32
-311.13
-309.39
-298.07
-278.14
-251.44
-220.19
-186.49
-152.08
-118.33
-86.43
-57.65
-33.31
-14.43
-1.29
6.87
11.71
15.31
19.46
25.08
32.09
39.63
46.48
51.61
54.42
54.88
53.41
50.66
47.28
43.62
39.66
34.96
28.93
21.16
11.68
1.15
-9.20
-17.81
-23.21
-24.34
-20.90
-13.38
-2.98
8.90
20.94
32.22
42.20
50.50
56.74
60.60
61.94
60.95
58.18
54.37
50.15
45.90
41.68
37.50
33.41
29.63
26.33
23.53
21.02
18.45
15.49
12.00
8.05
3.74
-0.83
-5.67
-10.96
-16.90
-23.51
-30.44
-36.98
-42.00
-44.26
-42.74
-36.92
-27.07
-14.04
1.00
16.91
32.79
47.91
61.37
71.91
77.90
77.77
70.64
56.85
38.04
16.87
-3.64
-20.84
-32.92
-39.13
-39.68
-35.50
-27.97
-18.72
-9.45
-1.70
3.33
4.90
2.98
-1.90
-8.95
-17.41
-26.74
-36.60
-46.60
-55.92
-63.24
-67.08
-66.25
-60.32
-49.80
-35.84
-19.84
-3.00
13.90
30.38
46.11
60.77
74.09
85.98
96.53
105.76
113.18
117.50
116.83
109.40
94.48
72.92
47.14
20.31
-4.75
-26.40
-44.27
-58.81
-70.73
-80.60
-89.08
-97.01
-105.32
-114.69
-125.22
-136.43
-147.52
-157.63
-165.70
-170.00
-167.68
-155.14
-129.12
-88.30
-34.41
27.58
90.33
145.75
186.77
208.86
211.11
196.76
172.68
147.42
128.67
120.44
121.64
126.89
129.17
123.18
107.37
83.87
56.65
29.49
5.07
-14.48
-26.74
-29.22
-20.82
-3.77
15.82
29.71
30.95
17.44
-6.95
-34.13
-55.59
-66.11
-65.42
-57.18
-46.26
-36.25
-28.33
-21.84
-15.46
-8.62
-1.76
4.05
7.76
9.16
8.83
7.91
7.36
7.49
7.80
7.34
5.31
1.57
-3.21
-7.95
-11.65
-14.05
-15.72
-17.85
-21.60
-27.55
-35.50
-44.60
-53.81
-62.01
-68.05
-70.62
-68.31
-60.16
-46.25
-28.18
-8.71
9.10
23.14
33.05
40.13
46.51
54.00
63.31
74.06
85.29
96.24
106.75
117.17
127.90
138.98
149.88
159.73
167.80
173.90
178.42
181.91
184.39
184.79
180.92
170.03
149.73
118.76
77.39
27.31
-28.59
-86.57
-142.24
-190.99
-228.65
-252.31
-261.05
-256.29
-241.52
-221.36
-200.50
-182.67
-170.20
-163.96
-163.55
-167.62
-174.03
-180.16
-183.29
-181.17
-172.42
-156.85
-135.42
-110.08
-83.47
-58.49
-37.72
-22.87
-14.36
-11.32
-11.93
-14.20
-16.80
-19.52
-23.19
-28.98
-37.49
-48.10
-58.70
-65.96
-66.55
-58.62
-43.22
-24.37
-7.96
0.66
-0.83
-10.55
-23.15
-31.85
-30.88
-16.93
10.52
49.68
96.98
147.38
194.56
231.87
254.07
259.03
248.56
227.27
200.30
171.30
141.77
112.05
82.61
54.74
29.62
6.77
-16.55
-43.69
-75.65
-108.77
-135.13
-146.11
-137.10
-110.57
-75.27
-41.94
-18.02
-4.62
2.71
10.27
22.07
37.73
53.33
64.38
68.54
66.67
62.05
58.10
56.70
57.37
57.88
55.78
49.67
40.05
29.01
19.20
12.62
9.77
9.60
10.07
9.16
5.72
-0.20
-7.46
-14.51
-19.94
-22.93
-23.35
-21.50
-17.78
-12.51
-5.79
2.52
12.81
25.87
42.91
65.24
93.40
126.13
159.62
187.60
202.63
198.42
172.34
127.22
71.26
15.97
-27.21
-50.26
-50.35
-29.50
7.28
54.19
105.89
157.66
204.94
243.27
268.99
280.40
278.55
266.93
250.07
231.84
214.21
197.20
179.58
159.67
136.04
107.59
73.44
32.77
-14.93
-69.20
-127.85
-186.52
-239.05
-278.90
-301.35
-305.46
-294.79
-276.32
-258.06
-246.36
-244.34
-251.71
-266.07
-284.40
-304.07
-323.05
-339.43
-350.94
-355.01
-349.60
-334.28
-310.87
-283.39
-256.83
-235.59
-222.11
-216.47
-216.72
-219.93
-223.05
-223.34
-218.63
-207.48
-189.42
-165.24
-136.79
-106.33
-75.61
-45.26
-14.98
15.60
46.24
75.96
103.44
127.77
148.74
166.51
181.02
191.68
197.56
198.19
194.14
187.08
179.31
172.81
168.53
166.21
164.67
162.35
157.91
150.44
139.50
125.05
107.40
87.29
65.84
44.48
24.75
7.96
-5.13
-14.50
-20.78
-24.91
-27.57
-28.62
-26.96
-20.84
-8.68
9.95
33.76
59.69
83.73
102.15
112.69
115.29
111.93
105.92
100.83
99.43
103.12
111.51
122.46
132.49
137.55
134.37
121.75
101.37
77.68
56.72
43.98
42.35
50.74
64.49
76.98
82.39
78.05
65.37
49.04
34.38
24.58
18.83
12.62
-0.06
-23.58
-58.24
-100.09
-142.54
-179.14
-205.74
-221.08
-226.03
-222.11
-210.64
-192.86
-170.67
-147.10
-125.80
-109.88
-100.58
-96.81
-95.78
-94.40
-90.64
-84.21
-76.28
-68.74
-63.26
-60.77
-61.39
-64.55
-69.30
-74.52
-79.26
-82.93
-85.53
-87.50
-89.40
-91.54
-93.64
-94.88
-94.21
-90.81
-84.27
-74.60
-61.99
-46.60
-28.58
-8.26
13.75
36.43
58.52
78.79
96.34
110.60
121.41
128.82
133.07
134.58
133.92
131.80
128.91
125.81
122.75
119.70
116.35
112.23
106.91
100.07
91.74
82.29
72.30
62.38
52.88
43.78
34.67
24.97
14.10
1.74
-12.08
-26.84
-41.50
-54.54
-64.17
-68.64
-66.80
-58.48
-44.61
-27.00
-7.71
11.47
29.39
45.53
59.71
71.76
81.49
88.65
93.22
95.41
95.56
94.07
91.25
87.36
82.75
77.89
73.29
69.32
65.95
62.79
59.18
54.51
48.45
41.12
32.92
24.39
15.96
7.72
-0.61
-9.53
-19.56
-31.09
-44.12
-58.18
-72.30
-85.01
-94.54
-99.19
-97.89
-90.57
-78.32
-63.00
-46.57
-30.47
-15.25
-0.83
12.97
25.92
37.29
46.16
51.89
54.56
54.82
53.64
51.79
49.66
47.38
45.02
42.83
41.14
40.11
39.45
38.38
35.88
31.24
24.43
16.27
8.02
0.84
-4.80
-9.35
-13.96
-19.96
-28.25
-38.98
-51.35
-63.79
-74.24
-80.68
-81.50
-75.92
-64.23
-47.74
-28.45
-8.64
9.59
24.84
36.44
44.42
49.35
51.96
52.97
52.86
52.01
50.64
49.01
47.44
46.23
45.57
45.45
45.61
45.67
45.23
44.00
41.91
38.96
35.22
30.73
25.43
19.30
12.35
4.75
-3.32
-11.72
-20.44
-29.60
-39.14
-48.60
-56.94
-62.65
-64.14
-60.35
-51.11
-37.33
-20.75
-3.40
12.93
27.04
38.50
47.39
54.01
58.64
61.44
62.48
61.91
60.02
57.25
54.10
51.03
48.40
46.46
45.28
44.74
44.43
43.69
41.81
38.22
32.74
25.59
17.32
8.60
0.03
-7.96
-15.17
-21.66
-27.84
-34.44
-42.24
-51.64
-62.19
-72.45
-80.31
-83.71
-81.46
-73.69
-61.77
-47.75
-33.59
-20.58
-9.22
0.60
9.22
16.87
23.56
29.09
33.23
35.91
37.28
37.72
37.64
37.25
36.45
34.95
32.54
29.37
25.97
22.96
20.68
18.88
16.84
13.72
9.08
3.08
-3.63
-10.33
-16.61
-22.57
-28.58
-35.09
-42.34
-50.24
-58.46
-66.34
-72.90
-76.89
-77.05
-72.59
-63.53
-50.83
-36.09
-21.07
-7.09
5.19
15.68
24.56
31.97
38.01
42.67
46.03
48.31
49.86
51.04
52.11
53.02
53.34
52.28
48.98
42.91
34.21
23.74
12.76
2.31
-7.24
-16.14
-24.88
-33.73
-42.46
-50.50
-57.41
-63.28
-68.77
-74.79
-81.95
-90.21
-98.78
-106.29
-111.21
-112.22
-108.60
-100.40
-88.55
-74.55
-60.03
-46.29
-33.94
-22.96
-12.94
-3.56
5.24
13.16
19.84
25.02
28.76
31.33
33.07
34.14
34.53
34.10
32.79
30.69
28.08
25.27
22.43
19.47
16.09
11.94
6.85
0.93
-5.40
-11.74
-17.84
-23.80
-30.00
-36.95
-45.05
-54.28
-64.06
-73.28
-80.42
-83.97
-82.83
-76.62
-65.83
-51.64
-35.67
-19.48
-4.24
9.47
21.65
32.53
42.26
50.73
57.49
62.02
63.97
63.47
61.14
57.91
54.62
51.81
49.47
47.20
44.49
40.92
36.36
30.96
25.06
19.00
13.06
7.33
1.77
-3.74
-9.42
-15.45
-22.09
-29.65
-38.46
-48.63
-59.70
-70.42
-78.82
-82.71
-80.49
-71.81
-57.85
-40.88
-23.45
-7.51
6.10
17.56
27.51
36.42
44.20
50.32
54.12
55.26
53.88
50.66
46.50
42.27
38.53
35.48
32.99
30.73
28.33
25.60
22.43
18.86
14.90
10.51
5.62
0.13
-5.96
-12.60
-19.80
-27.66
-36.37
-45.97
-56.02
-65.40
-72.54
-75.79
-74.04
-67.18
-56.03
-42.00
-26.61
-11.10
3.65
17.10
28.88
38.73
46.41
51.83
55.07
56.35
56.04
54.61
52.50
50.01
47.27
44.16
40.52
36.31
31.59
26.63
21.62
16.58
11.35
5.71
-0.45
-7.08
-14.01
-21.19
-28.77
-37.06
-46.38
-56.69
-67.30
-76.88
-83.67
-85.99
-82.73
-73.75
-59.92
-42.85
-24.45
-6.35
10.38
25.32
38.53
50.23
60.49
69.13
75.76
80.11
82.11
81.98
80.20
77.20
73.36
69.00
64.41
59.91
55.76
51.97
48.27
44.16
39.21
33.22
26.35
18.86
10.85
2.12
-7.83
-19.54
-33.36
-49.18
-66.39
-83.80
-99.77
-112.44
-120.03
-121.32
-116.11
-105.25
-90.51
-73.91
-57.11
-41.06
-25.97
-11.72
1.75
14.13
24.78
32.99
38.32
40.78
40.94
39.64
37.82
36.19
35.12
34.58
34.27
33.74
32.58
30.53
27.52
23.67
19.12
14.02
8.42
2.38
-4.15
-11.15
-18.69
-26.93
-36.10
-46.29
-57.09
-67.39
-75.40
-79.01
-76.56
-67.51
-52.76
-34.41
-15.00
3.29
19.32
32.97
44.68
54.89
63.57
70.23
74.28
75.48
74.19
71.25
67.60
63.97
60.57
57.26
53.78
50.07
46.26
42.61
39.14
35.52
31.19
25.61
18.62
10.52
1.99
-6.30
-13.96
-21.14
-28.38
-36.39
-45.67
-56.29
-67.68
-78.65
-87.65
-93.05
-93.57
-88.60
-78.33
-63.64
-45.94
-26.63
-6.92
12.31
30.58
47.51
62.73
75.77
86.14
93.56
98.08
100.18
100.46
99.44
97.20
93.54
88.14
81.10
73.11
65.36
58.98
54.40
51.13
47.89
43.30
36.66
28.38
19.94
13.17
9.47
9.07
10.87
12.94
13.35
11.05
6.49
1.46
-1.44
0.35
8.51
23.20
42.61
62.96
79.04
85.08
76.49
51.74
13.65
-30.78
-72.32
-102.61
-116.98
-115.81
-103.45
-85.70
-67.02
-49.06
-31.21
-12.35
7.31
25.70
39.85
47.50
48.39
44.33
38.09
31.93
26.66
21.64
15.42
6.90
-3.98
-16.17
-27.90
-37.41
-43.49
-45.81
-44.93
-42.04
-38.60
-35.89
-34.55
-34.39
-34.47
-33.56
-30.61
-25.10
-17.08
-6.79
5.57
19.83
35.40
50.89
64.07
72.46
74.14
68.43
55.92
37.97
16.06
-8.47
-34.34
-59.90
-83.10
-101.90
-114.94
-121.93
-123.51
-120.63
-113.93
-103.50
-89.41
-72.27
-53.55
-35.48
-20.36
-10.06
-5.47
-6.52
-12.25
-21.13
-31.30
-41.08
-49.44
-56.38
-62.76
-69.76
-78.00
-87.02
-95.21
-100.49
-101.25
-97.13
-89.21
-79.51
-70.11
-62.47
-56.88
-52.50
-47.69
-40.66
-30.27
-16.59
-0.86
15.03
29.55
42.28
53.99
65.91
78.52
90.71
99.85
102.81
97.32
83.17
62.25
37.89
13.64
-7.76
-24.81
-37.11
-44.96
-49.08
-50.43
-50.20
-49.87
-51.10
-55.50
-64.23
-77.53
-94.45
-112.78
-129.43
-141.15
-145.49
-141.44
-129.65
-112.06
-91.14
-69.09
-47.37
-26.55
-6.71
12.16
29.84
45.81
59.44
70.18
77.90
82.89
85.83
87.49
88.46
89.00
89.04
88.41
87.07
85.18
82.98
80.60
77.79
74.11
69.13
62.83
55.60
48.12
40.98
34.30
27.64
20.23
11.27
0.31
-12.59
-26.73
-40.89
-53.36
-62.28
-66.08
-63.88
-55.88
-43.27
-27.85
-11.46
4.46
19.11
32.08
43.18
52.21
58.97
63.34
65.45
65.67
64.50
62.39
59.76
56.84
53.75
50.55
47.18
43.52
39.40
34.64
29.13
22.82
15.74
8.03
-0.11
-8.36
-16.46
-24.20
-31.66
-39.18
-47.30
-56.55
-67.00
-78.07
-88.36
-95.93
-98.93
-96.15
-87.58
-74.35
-58.35
-41.51
-25.19
-9.89
4.54
18.52
32.25
45.50
57.70
68.09
75.98
81.01
83.12
82.62
80.02
76.01
71.27
66.39
61.83
57.83
54.37
51.17
47.70
43.35
37.69
30.64
22.60
14.30
6.36
-0.92
-7.75
-14.80
-22.84
-32.41
-43.62
-55.87
-67.87
-77.74
-83.46
-83.43
-77.01
-64.80
-48.50
-30.27
-12.06
4.96
20.40
34.41
47.17
58.63
68.45
76.27
81.84
85.29
86.89
86.99
85.81
83.48
80.18
76.23
72.20
68.64
65.84
63.56
61.02
57.20
51.41
43.55
34.17
24.12
14.06
4.22
-5.49
-15.24
-25.01
-34.65
-44.04
-53.35
-62.83
-72.52
-81.78
-89.15
-92.75
-90.98
-83.24
-70.27
-53.83
-36.05
-18.75
-2.98
10.99
23.36
34.37
44.01
51.90
57.57
60.67
61.22
59.69
56.90
53.76
50.93
48.64
46.71
44.68
42.16
38.90
34.82
29.87
24.00
17.17
9.52
1.46
-6.44
-13.57
-19.74
-25.24
-30.86
-37.49
-45.60
-54.89
-64.13
-71.51
-75.10
-73.43
-65.80
-52.44
-34.34
-12.99
9.99
33.15
55.31
75.76
94.21
110.64
125.24
138.16
149.48
159.14
167.06
173.20
177.58
180.16
180.81
179.37
175.84
170.57
164.31
157.82
151.45
144.83
136.81
125.94
111.03
91.64
68.23
41.94
14.09
-14.21
-42.26
-69.81
-96.91
-123.80
-150.64
-177.35
-203.38
-227.62
-248.46
-263.95
-272.26
-272.08
-262.99
-245.67
-221.70
-193.22
-162.39
-130.98
-100.33
-71.46
-45.25
-22.47
-3.63
11.24
22.68
31.59
38.83
44.84
49.63
52.95
54.65
54.89
54.08
52.73
51.17
49.55
47.84
45.95
43.64
40.66
36.65
31.41
24.99
17.83
10.59
3.92
-1.78
-6.41
-10.01
-12.46
-13.35
-11.95
-7.52
0.45
11.96
26.46
42.96
60.19
76.54
90.18
99.01
100.87
94.07
77.97
53.49
23.07
-9.89
-42.09
-71.30
-96.83
-119.21
-139.40
-157.89
-174.24
-187.24
-195.51
-198.27
-195.53
-188.13
-177.22
-163.81
-148.62
-132.18
-115.21
-98.75
-84.26
-73.19
-66.48
-64.03
-64.51
-65.65
-64.87
-60.11
-50.41
-36.09
-18.41
0.95
20.52
39.38
57.18
73.76
88.82
101.72
111.47
117.09
117.98
114.10
105.96
94.37
80.23
64.41
47.94
31.99
17.93
7.07
0.26
-2.37
-1.42
2.09
7.15
13.09
19.53
26.13
32.16
36.38
37.19
33.05
22.96
6.88
-14.17
-38.27
-62.86
-85.27
-103.16
-115.09
-120.78
-121.19
-117.95
-112.75
-106.55
-99.30
-90.15
-78.16
-63.03
-45.52
-27.33
-10.59
2.90
12.14
17.10
18.65
18.16
17.11
16.75
17.70
19.85
22.37
24.02
23.52
20.05
13.52
4.57
-5.64
-15.68
-24.35
-30.95
-35.56
-38.94
-42.34
-47.12
-54.19
-63.72
-75.00
-86.62
-96.90
-104.35
-107.94
-107.29
-102.57
-94.47
-83.97
-72.19
-60.07
-48.29
-37.07
-26.39
-16.13
-6.45
2.20
9.23
14.19
17.13
18.68
19.81
21.38
23.70
26.47
28.96
30.51
30.93
30.64
30.55
31.61
34.39
38.74
43.74
47.90
49.67
47.85
41.95
32.27
19.81
6.06
-7.25
-18.35
-25.66
-28.13
-25.54
-18.50
-8.40
3.16
14.74
25.46
34.86
42.65
48.32
51.04
49.90
44.25
34.16
20.44
4.47
-12.24
-28.37
-43.14
-56.24
-67.71
-77.70
-86.15
-92.70
-96.66
-97.23
-93.87
-86.72
-76.74
-65.60
-55.26
-47.41
-43.10
-42.58
-45.40
-50.57
-56.75
-62.33
-65.48
-64.50
-58.13
-46.01
-28.83
-8.17
14.02
36.01
56.62
75.34
92.04
106.70
119.17
129.19
136.46
140.83
142.41
141.63
139.08
135.50
131.47
127.29
122.91
117.95
111.99
104.74
96.26
86.86
76.94
66.75
56.32
45.52
34.14
21.98
8.76
-5.84
-21.94
-39.13
-56.08
-70.67
-80.47
-83.60
-79.50
-69.03
-54.08
-36.73
-18.47
-0.04
18.40
36.74
54.55
70.99
85.07
96.00
103.42
107.46
108.60
107.49
104.76
100.89
96.19
90.80
84.80
78.25
71.29
64.12
56.91
49.68
42.33
34.54
25.90
15.97
4.37
-9.10
-24.30
-40.56
-56.58
-70.56
-80.47
-84.61
-82.10
-73.09
-58.79
-40.99
-21.65
-2.42
15.57
31.66
45.43
56.53
64.56
69.17
70.29
68.26
63.91
58.38
52.86
48.13
44.43
41.44
38.57
35.34
31.56
27.40
23.16
19.00
14.85
10.39
5.29
-0.62
-7.33
-14.78
-23.00
-32.25
-42.72
-54.22
-65.81
-75.83
-82.25
-83.34
-78.24
-67.20
-51.40
-32.44
-11.89
9.06
29.53
48.86
66.40
81.47
93.51
102.14
107.35
109.44
108.92
106.42
102.50
97.58
91.98
85.95
79.79
73.69
67.82
62.10
56.22
49.83
42.69
34.80
26.40
17.80
9.19
0.54
-8.36
-17.81
-28.12
-39.48
-51.87
-64.83
-77.33
-87.76
-94.26
-95.30
-90.20
-79.43
-64.38
-46.87
-28.55
-10.57
6.41
22.05
36.07
48.11
57.84
65.00
69.53
71.59
71.51
69.74
66.80
63.21
59.38
55.60
52.03
48.73
45.66
42.63
39.30
35.19
29.82
22.89
14.42
4.77
-5.56
-16.14
-26.94
-38.27
-50.60
-64.15
-78.47
-92.23
-103.39
-109.71
-109.50
-102.12
-88.24
-69.62
-48.48
-27.00
-6.74
11.46
27.44
41.37
53.41
63.49
71.16
75.77
76.72
73.74
67.13
57.60
46.02
33.12
19.35
4.95
-9.78
-24.30
-37.81
-49.46
-58.63
-65.14
-69.18
-71.09
-71.18
-69.59
-66.47
-62.17
-57.35
-52.88
-49.47
-47.17
-45.16
-41.78
-35.18
-24.01
-8.10
11.48
32.74
53.53
72.36
88.74
103.13
116.43
129.34
142.00
153.90
164.24
172.32
177.88
181.14
182.58
182.67
181.43
178.37
172.54
162.88
148.70
130.15
108.49
85.90
65.14
48.87
39.11
36.84
41.75
52.07
64.74
75.84
81.54
79.25
68.54
51.38
31.34
12.23
-3.26
-14.23
-21.27
-25.64
-28.33
-29.71
-29.82
-28.90
-27.89
-28.49
-32.70
-42.20
-57.73
-78.77
-103.67
-130.20
-156.18
-180.21
-201.83
-221.37
-239.42
-256.29
-271.69
-284.78
-294.57
-300.22
-301.16
-297.00
-287.53
-272.73
-253.09
-229.89
-205.23
-181.74
-161.82
-146.91
-136.96
-130.44
-124.91
-117.80
-107.24
-92.55
-74.16
-53.32
-31.59
-10.47
8.84
25.42
38.68
48.30
54.36
57.38
58.31
58.29
58.31
58.89
59.99
61.16
61.81
61.63
60.72
59.50
58.49
57.97
57.78
57.37
55.98
52.97
48.01
41.21
33.04
24.17
15.44
7.74
1.97
-1.10
-1.11
1.77
6.75
12.70
18.54
23.56
27.55
30.65
33.07
34.89
36.01
36.33
35.92
35.05
34.07
33.23
32.52
31.72
30.49
28.70
26.47
24.19
22.33
21.21
20.92
21.21
21.67
21.87
21.52
20.47
18.60
15.75
11.71
6.40
0.06
-6.59
-12.45
-16.34
-17.40
-15.37
-10.60
-3.83
4.10
12.51
20.88
28.90
36.31
42.89
48.49
52.90
55.90
57.30
57.02
55.21
52.24
48.56
44.50
40.19
35.45
30.10
24.11
17.70
11.32
5.42
0.25
-4.26
-8.38
-12.50
-16.95
-21.91
-27.45
-33.52
-40.01
-46.76
-53.57
-60.05
-65.68
-69.72
-71.44
-70.35
-66.43
-60.20
-52.55
-44.40
-36.38
-28.67
-21.12
-13.54
-6.02
0.93
6.46
9.65
9.89
7.12
1.96
-4.47
-10.87
-16.24
-20.11
-22.65
-24.53
-26.52
-29.18
-32.68
-36.80
-41.17
-45.42
-49.42
-53.24
-57.24
-61.95
-67.99
-75.93
-85.90
-97.39
-109.03
-118.76
-124.31
-123.78
-116.28
-102.05
-82.35
-59.10
-34.53
-10.96
9.37
24.47
32.95
34.29
29.03
18.61
4.95
-9.99
-24.64
-37.88
-48.90
-57.20
-62.51
-65.04
-65.57
-65.35
-65.63
-67.18
-69.87
-72.82
-74.84
-75.12
-73.67
-71.35
-69.33
-68.56
-69.20
-70.64
-71.63
-70.87
-67.27
-60.31
-50.02
-36.95
-21.98
-6.11
9.79
25.12
39.47
52.52
63.83
72.76
78.67
81.15
80.27
76.56
70.94
64.48
58.27
53.23
50.03
48.97
49.82
51.85
54.00
55.17
54.54
51.69
46.59
39.31
29.92
18.40
4.82
-10.54
-27.01
-43.64
-59.26
-72.60
-82.22
-86.64
-84.39
-74.40
-56.45
-31.44
-1.52
30.28
60.54
86.19
104.96
115.75
118.57
114.33
104.43
90.38
73.65
55.56
37.46
20.64
6.16
-5.51
-14.70
-22.51
-30.45
-39.83
-51.29
-64.60
-78.78
-92.40
-104.11
-112.92
-118.56
-121.59
-123.28
-125.28
-128.96
-134.77
-141.81
-147.93
-150.35
-146.66
-135.59
-117.48
-94.07
-67.96
-41.78
-17.48
4.07
22.89
39.46
54.23
67.29
78.41
87.28
93.90
98.70
102.39
105.62
108.56
110.76
111.41
109.83
105.98
100.64
95.14
90.69
87.78
85.91
83.88
80.29
74.27
65.82
55.80
45.59
36.65
30.20
27.05
27.60
31.79
39.21
49.19
60.99
73.89
87.37
100.96
114.21
126.55
137.23
145.52
150.79
152.74
151.31
146.67
139.11
128.93
116.44
102.00
86.06
69.24
52.49
36.91
23.61
13.27
5.79
0.11
-5.64
-13.49
-25.03
-40.78
-60.02
-81.01
-101.49
-119.29
-132.71
-140.67
-142.73
-139.03
-130.23
-117.38
-101.82
-84.90
-67.79
-51.33
-35.99
-22.01
-9.56
1.19
10.11
17.21
22.72
27.00
30.54
33.67
36.55
39.14
41.28
42.78
43.49
43.24
41.93
39.52
36.07
31.83
27.06
22.02
16.79
11.22
4.97
-2.35
-10.93
-20.58
-30.50
-39.40
-45.69
-48.00
-45.63
-38.82
-28.68
-16.82
-4.82
6.38
16.58
26.25
36.02
46.24
56.50
65.75
72.62
75.91
75.23
71.11
64.86
58.01
51.65
46.06
40.76
34.96
28.11
20.33
12.32
5.05
-0.79
-5.07
-8.19
-10.81
-13.52
-16.66
-20.31
-24.49
-29.22
-34.40
-39.63
-44.13
-46.83
-46.70
-43.15
-36.21
-26.54
-15.07
-2.77
9.60
21.51
32.50
42.08
49.67
54.77
57.06
56.57
53.71
49.07
43.30
37.06
30.97
25.60
21.40
18.58
17.14
16.89
17.56
18.92
20.77
22.79
24.45
25.07
23.96
20.70
15.26
7.96
-0.74
-10.50
-21.03
-31.92
-42.38
-51.21
-57.01
-58.69
-55.85
-49.06
-39.63
-29.22
-19.27
-10.64
-3.54
2.32
7.35
11.83
15.82
19.13
21.54
22.89
23.12
22.30
20.59
18.23
15.50
12.76
10.24
8.15
6.56
5.43
4.58
3.75
2.58
0.73
-1.99
-5.54
-9.65
-13.95
-18.32
-23.05
-28.72
-35.91
-44.70
-54.25
-62.93
-68.74
-70.04
-66.16
-57.68
-46.18
-33.66
-21.89
-11.83
-3.58
3.35
9.60
15.45
20.66
24.63
26.71
26.65
24.82
22.05
19.30
17.33
16.50
16.71
17.74
19.32
21.20
22.97
24.03
23.76
21.80
18.28
13.75
8.86
3.86
-1.69
-8.63
-17.69
-28.81
-40.97
-52.33
-60.93
-65.36
-65.11
-60.58
-52.67
-42.39
-30.65
-18.18
-5.68
6.10
16.41
24.65
30.59
34.51
37.06
38.96
40.59
41.90
42.47
41.86
39.98
37.10
33.76
30.36
26.95
23.30
19.19
14.61
9.95
5.76
2.41
-0.11
-2.29
-4.91
-8.76
-14.45
-22.25
-31.99
-43.04
-54.20
-63.82
-70.14
-71.73
-67.96
-59.23
-46.83
-32.58
-18.23
-5.06
6.31
15.82
23.75
30.44
36.04
40.50
43.64
45.25
45.28
43.89
41.40
38.21
34.63
30.82
26.78
22.38
17.55
12.33
6.94
1.65
-3.27
-7.77
-11.98
-16.19
-20.73
-25.77
-31.37
-37.44
-43.70
-49.68
-54.70
-57.79
-57.97
-54.56
-47.51
-37.50
-25.76
-13.65
-2.23
7.97
16.82
24.43
30.95
36.44
40.87
44.15
46.17
46.93
46.54
45.39
43.98
42.73
41.72
40.51
38.34
34.53
28.86
21.77
14.23
7.17
1.17
-3.82
-8.35
-13.20
-19.07
-26.40
-35.18
-44.87
-54.35
-62.04
-66.27
-65.83
-60.33
-50.41
-37.47
-23.16
-8.90
4.39
16.26
26.50
34.96
41.48
45.94
48.36
48.90
47.83
45.41
41.94
37.69
33.02
28.37
24.16
20.60
17.70
15.22
12.77
9.98
6.63
2.55
-2.39
-8.36
-15.57
-24.02
-33.44
-43.18
-52.25
-59.52
-63.95
-64.76
-61.64
-54.76
-44.81
-32.87
-20.20
-7.89
3.33
13.18
21.69
28.97
34.93
39.25
41.57
41.67
39.82
36.68
33.18
30.12
27.88
26.23
24.51
21.98
18.24
13.43
8.17
3.22
-0.94
-4.42
-7.85
-12.15
-18.15
-26.15
-35.85
-46.29
-56.06
-63.61
-67.61
-67.23
-62.33
-53.59
-42.24
-29.76
-17.50
-6.36
3.34
11.78
19.47
26.84
33.95
40.41
45.51
48.50
48.93
46.91
42.95
37.75
31.94
25.92
19.92
14.15
8.90
4.46
0.93
-1.89
-4.55
-7.71
-11.92
-17.44
-24.26
-32.07
-40.35
-48.30
-54.91
-59.06
-59.86
-57.00
-50.83
-42.29
-32.45
-22.19
-11.98
-1.96
7.81
17.16
25.71
33.01
38.62
42.22
43.70
43.12
40.81
37.28
33.20
29.16
25.51
22.27
19.24
16.21
13.10
10.00
7.01
4.03
0.69
-3.53
-9.14
-16.38
-25.08
-34.72
-44.46
-53.28
-60.00
-63.56
-63.22
-58.82
-50.92
-40.59
-29.10
-17.42
-6.07
4.85
15.28
24.97
33.38
39.82
43.81
45.25
44.46
42.00
38.47
34.37
30.07
25.85
21.90
18.32
15.04
12.00
9.21
6.73
4.68
3.01
1.31
-1.12
-5.05
-10.99
-18.99
-28.61
-39.02
-49.15
-57.81
-63.81
-66.12
-64.16
-57.99
-48.39
-36.58
-23.76
-10.73
2.15
14.72
26.65
37.21
45.47
50.67
52.56
51.57
48.50
44.29
39.71
35.30
31.35
27.99
25.16
22.67
20.19
17.40
14.15
10.42
6.28
1.72
-3.39
-9.34
-16.31
-24.30
-33.07
-42.04
-50.41
-57.13
-61.11
-61.45
-57.74
-50.23
-39.85
-27.87
-15.46
-3.42
8.01
18.86
29.13
38.53
46.47
52.25
55.40
55.91
54.23
51.16
47.54
44.03
41.02
38.48
36.14
33.63
30.62
26.98
22.79
18.26
13.56
8.79
3.87
-1.39
-7.16
-13.64
-20.97
-29.22
-38.23
-47.45
-55.91
-62.27
-65.19
-63.76
-57.89
-48.32
-36.43
-23.82
-11.86
-1.34
7.59
15.27
22.15
28.58
34.54
39.75
43.76
46.20
46.87
45.81
43.16
39.14
34.02
28.23
22.33
16.94
12.60
9.61
7.93
7.14
6.65
5.83
4.06
0.87
-4.06
-10.83
-19.28
-28.88
-38.71
-47.48
-53.72
-56.11
-53.84
-46.91
-36.18
-23.18
-9.62
3.05
13.99
22.98
30.21
35.97
40.40
43.42
44.84
44.49
42.37
38.79
34.30
29.55
25.10
21.12
17.46
13.69
9.48
4.80
-0.03
-4.57
-8.55
-12.01
-15.16
-18.11
-20.72
-22.83
-24.55
-26.45
-29.44
-34.12
-40.19
-46.29
-50.42
-50.87
-46.90
-39.06
-28.76
-17.59
-6.77
3.04
11.51
18.42
23.46
26.35
27.02
25.79
23.28
20.28
17.47
15.23
13.58
12.28
10.86
8.86
5.98
2.21
-2.08
-6.23
-9.50
-11.31
-11.53
-10.59
-9.48
-9.37
-11.27
-15.61
-21.95
-29.03
-35.21
-38.90
-39.13
-35.67
-29.00
-20.00
-9.62
1.24
11.75
21.12
28.59
33.62
36.10
36.42
35.31
33.59
31.95
30.74
30.03
29.62
29.19
28.26
26.37
23.23
18.93
14.02
9.37
5.85
3.88
3.29
3.36
3.19
2.07
-0.23
-3.41
-6.84
-9.76
-11.49
-11.48
-9.27
-4.59
2.59
11.90
22.47
32.94
41.80
47.73
49.92
48.35
43.67
37.01
29.61
22.49
16.23
10.92
6.33
2.14
-1.92
-5.88
-9.57
-12.78
-15.32
-17.13
-18.32
-19.23
-20.32
-22.25
-25.61
-30.77
-37.58
-45.21
-52.26
-57.08
-58.33
-55.38
-48.48
-38.70
-27.56
-16.50
-6.62
1.47
7.54
11.52
13.35
12.94
10.33
5.94
0.58
-4.68
-8.94
-11.75
-13.25
-13.92
-14.27
-14.45
-14.31
-13.60
-12.28
-10.75
-9.65
-9.53
-10.68
-13.05
-16.34
-20.15
-24.12
-27.70
-30.25
-31.00
-29.29
-24.80
-17.65
-8.43
2.00
12.70
22.81
31.66
38.77
43.88
46.94
48.12
47.73
46.17
43.81
40.97
37.86
34.59
31.21
27.77
24.38
21.16
18.23
15.59
13.08
10.38
7.02
2.61
-3.15
-10.28
-18.42
-26.83
-34.51
-40.36
-43.47
-43.41
-40.28
-34.74
-27.74
-20.34
-13.29
-7.08
-1.94
2.06
4.87
6.45
6.77
5.95
4.30
2.24
0.14
-1.81
-3.76
-6.09
-9.21
-13.30
-18.18
-23.41
-28.63
-33.68
-38.80
-44.44
-50.96
-58.44
-66.51
-74.35
-80.83
-84.67
-84.81
-80.59
-72.08
-60.15
-46.27
-32.10
-18.98
-7.71
1.59
9.13
15.20
20.05
23.87
26.87
29.29
31.22
32.54
33.03
32.48
30.91
28.61
25.99
23.34
20.70
17.91
14.74
11.06
6.79
1.95
-3.43
-9.25
-15.25
-20.93
-25.66
-28.88
-30.33
-30.13
-28.66
-26.29
-23.24
-19.46
-14.73
-8.89
-1.92
5.90
14.10
22.08
29.19
34.84
38.51
40.01
39.34
36.81
32.90
28.25
23.55
19.44
16.58
15.46
16.19
18.29
20.77
22.27
21.53
17.87
11.46
3.13
-5.88
-14.37
-21.44
-26.60
-29.56
-30.22
-28.69
-25.32
-20.78
-15.84
-11.15
-6.97
-3.06
1.07
5.79
11.02
16.21
20.56
23.37
24.41
23.99
22.70
21.15
19.65
18.14
16.42
14.43
12.48
11.22
11.25
12.75
15.21
17.45
18.13
16.15
11.08
3.27
-6.35
-16.64
-26.43
-34.64
-40.27
-42.49
-40.79
-35.18
-26.37
-15.62
-4.39
5.94
14.34
20.29
23.68
24.72
23.99
22.34
20.69
19.87
20.35
22.15
24.84
27.88
30.79
33.22
34.87
35.46
34.65
32.32
28.65
24.23
19.92
16.58
14.71
14.31
14.87
15.48
15.05
12.56
7.35
-0.56
-10.34
-20.43
-28.92
-34.00
-34.49
-30.06
-21.17
-8.81
5.69
20.85
35.14
47.15
55.70
60.08
60.29
57.07
51.65
45.33
39.03
33.08
27.31
21.42
15.38
9.52
4.44
0.50
-2.37
-4.75
-7.42
-10.95
-15.41
-20.43
-25.56
-30.62
-35.91
-41.93
-48.84
-56.11
-62.36
-65.69
-64.35
-57.46
-45.35
-29.60
-12.50
3.60
16.93
26.53
32.18
34.14
32.90
29.08
23.52
17.23
11.27
6.55
3.54
2.27
2.32
3.23
4.54
5.98
7.23
7.84
7.27
5.03
0.96
-4.75
-11.59
-18.91
-25.98
-32.03
-36.05
-37.15
-34.73
-28.88
-20.52
-11.11
-2.08
5.61
11.57
15.92
18.84
20.34
20.33
18.84
16.21
13.03
9.95
7.41
5.66
4.72
4.56
5.14
6.33
7.83
9.11
9.61
8.87
6.80
3.66
-0.06
-3.89
-7.59
-11.30
-15.46
-20.53
-26.70
-33.65
-40.53
-46.17
-49.42
-49.56
-46.49
-40.66
-32.89
-24.20
-15.53
-7.70
-1.27
3.41
6.24
7.34
6.97
5.56
3.52
1.26
-0.88
-2.68
-4.08
-5.15
-6.11
-7.17
-8.42
-9.78
-11.02
-11.93
-12.57
-13.32
-14.83
-17.80
-22.58
-28.89
-35.84
-42.11
-46.42
-47.90
-46.36
-42.15
-35.95
-28.43
-20.13
-11.45
-2.78
5.41
12.56
18.18
21.95
23.81
23.99
22.89
21.01
18.81
16.63
14.60
12.65
10.55
8.09
5.23
2.16
-0.82
-3.46
-5.75
-7.93
-10.44
-13.70
-18.00
-23.39
-29.70
-36.40
-42.71
-47.60
-50.08
-49.44
-45.54
-38.88
-30.33
-20.87
-11.23
-1.89
6.88
14.71
21.13
25.56
27.61
27.28
24.97
21.39
17.32
13.38
9.87
6.80
4.05
1.50
-0.80
-2.61
-3.67
-3.85
-3.33
-2.68
-2.68
-3.98
-7.03
-11.81
-17.93
-24.73
-31.34
-36.84
-40.33
-41.16
-39.04
-34.24
-27.35
-19.11
-10.07
-0.57
9.12
18.51
26.77
32.83
35.81
35.39
32.03
26.75
20.81
15.23
10.60
7.11
4.70
3.21
2.47
2.31
2.43
2.52
2.15
0.89
-1.67
-5.81
-11.68
-18.98
-26.95
-34.33
-39.69
-41.85
-40.34
-35.46
-28.12
-19.43
-10.16
-0.63
9.14
19.19
29.30
38.81
46.91
52.79
55.92
56.24
54.04
49.97
44.87
39.57
34.73
30.81
28.03
26.46
26.05
26.59
27.63
28.38
27.86
25.06
19.35
10.63
-0.57
-13.12
-25.55
-36.20
-43.47
-46.14
-43.63
-36.24
-25.05
-11.70
2.21
15.38
27.04
36.78
44.28
49.20
51.32
50.76
48.14
44.49
40.92
38.12
36.24
34.89
33.48
31.52
28.79
25.22
20.82
15.54
9.24
1.87
-6.49
-15.59
-25.04
-34.37
-42.95
-49.93
-54.17
-54.56
-50.34
-41.52
-28.97
-14.21
0.96
15.00
26.95
36.38
43.26
47.74
49.99
50.24
48.82
46.15
42.70
38.88
34.93
30.95
26.93
22.76
18.33
13.62
8.67
3.58
-1.53
-6.69
-12.05
-17.88
-24.44
-31.89
-40.17
-49.00
-57.89
-66.16
-72.97
-77.40
-78.61
-76.11
-69.89
-60.33
-48.12
-34.00
-18.62
-2.60
13.32
28.12
40.61
49.77
55.04
56.66
55.59
53.17
50.62
48.67
47.40
46.38
45.03
42.93
39.95
36.25
32.16
27.86
23.44
18.79
13.70
7.95
1.27
-6.50
-15.33
-24.86
-34.32
-42.54
-48.17
-50.13
-47.80
-41.29
-31.30
-18.98
-5.54
7.91
20.47
31.45
40.31
46.67
50.33
51.35
50.10
47.15
43.20
38.91
34.81
31.13
27.90
24.96
22.10
19.14
15.99
12.65
9.09
5.19
0.81
-4.21
-9.94
-16.27
-23.12
-30.43
-38.17
-46.28
-54.36
-61.50
-66.43
-67.86
-64.97
-57.75
-47.05
-34.17
-20.41
-6.70
6.44
18.76
30.04
39.92
47.97
53.81
57.26
58.44
57.71
55.62
52.74
49.55
46.35
43.17
39.86
36.18
31.95
27.24
22.38
17.77
13.73
10.27
7.03
3.39
-1.29
-7.47
-15.26
-24.38
-34.16
-43.62
-51.64
-57.06
-58.99
-57.01
-51.28
-42.57
-31.94
-20.48
-9.01
2.02
12.34
21.69
29.72
35.90
39.80
41.20
40.23
37.39
33.42
29.03
24.72
20.64
16.63
12.34
7.45
1.89
-4.12
-10.10
-15.59
-20.31
-24.32
-27.94
-31.55
-35.51
-39.95
-44.83
-49.89
-54.62
-58.31
-60.04
-58.93
-54.34
-46.20
-35.03
-21.88
-8.07
5.25
17.34
27.92
37.04
44.85
51.35
56.38
59.67
61.09
60.75
59.03
56.42
53.31
49.89
46.16
42.04
37.57
32.91
28.29
23.90
19.81
15.87
11.77
7.02
1.00
-6.93
-17.15
-29.56
-43.32
-56.94
-68.55
-76.48
-79.75
-78.26
-72.71
-64.23
-53.86
-42.38
-30.18
-17.53
-4.78
7.47
18.44
27.26
33.31
36.31
36.51
34.55
31.28
27.53
23.93
20.73
17.89
15.21
12.49
9.65
6.77
3.95
1.24
-1.46
-4.41
-7.91
-12.20
-17.37
-23.38
-30.11
-37.33
-44.66
-51.48
-56.88
-59.78
-59.28
-54.97
-47.21
-36.98
-25.54
-13.97
-2.88
7.51
17.14
25.77
32.89
37.91
40.43
40.51
38.65
35.63
32.20
28.88
25.93
23.32
20.88
18.39
15.71
12.76
9.58
6.22
2.68
-1.10
-5.23
-9.76
-14.60
-19.57
-24.51
-29.41
-34.39
-39.47
-44.31
-48.14
-49.84
-48.45
-43.51
-35.35
-24.81
-12.96
-0.63
11.81
24.33
36.98
49.67
62.02
73.52
83.63
91.97
98.46
103.17
106.19
107.52
106.97
104.24
99.14
91.73
82.30
71.27
58.95
45.36
30.40
14.02
-3.56
-21.80
-40.06
-57.90
-75.21
-92.23
-109.19
-126.00
-142.12
-156.44
-167.46
-173.55
-173.36
-166.13
-152.13
-132.71
-110.13
-86.89
-65.08
-45.75
-28.85
-13.56
1.03
15.35
29.12
41.55
51.87
59.77
65.55
69.92
73.54
76.75
79.45
81.27
82.03
81.90
81.46
81.44
82.37
84.38
87.11
89.88
91.98
92.87
92.32
90.46
87.78
85.03
83.03
82.37
83.06
84.28
84.28
80.57
70.48
51.92
24.21
-11.36
-51.69
-92.55
-129.79
-160.50
-183.62
-199.72
-210.14
-215.92
-217.16
-213.13
-203.03
-186.77
-165.33
-140.43
-113.89
-86.89
-59.83
-32.74
-5.83
19.92
42.87
61.15
73.45
79.44
79.97
76.53
70.71
63.55
55.42
46.18
35.61
23.88
11.65
-0.06
-10.23
-18.18
-23.67
-26.85
-28.06
-27.73
-26.37
-24.67
-23.54
-24.04
-27.18
-33.58
-43.21
-55.31
-68.52
-81.17
-91.81
-99.49
-103.94
-105.34
-104.06
-100.38
-94.41
-86.17
-75.78
-63.58
-49.98
-35.39
-20.13
-4.48
11.19
26.32
40.24
52.38
62.50
70.64
77.10
82.12
85.83
88.09
88.67
87.40
84.35
79.83
74.38
68.47
62.30
55.81
48.69
40.72
32.04
23.34
15.62
9.83
6.28
4.37
2.75
-0.13
-5.39
-13.22
-22.90
-33.19
-42.72
-50.55
-56.15
-59.38
-60.22
-58.64
-54.64
-48.37
-40.30
-31.03
-21.22
-11.34
-1.66
7.81
17.11
26.26
35.21
43.78
51.67
58.58
64.26
68.69
72.08
74.82
77.26
79.56
81.47
82.57
82.48
81.21
79.19
77.04
75.13
73.19
70.37
65.64
58.30
48.40
36.81
24.81
13.54
3.58
-5.19
-13.28
-21.31
-29.68
-38.47
-47.63
-57.00
-66.35
-75.18
-82.72
-87.87
-89.55
-87.07
-80.43
-70.38
-58.26
-45.48
-33.17
-21.92
-11.86
-2.92
4.89
11.35
16.14
19.04
20.14
19.93
19.12
18.30
17.76
17.32
16.60
15.25
13.17
10.52
7.63
4.77
2.09
-0.27
-2.27
-3.83
-4.99
-5.97
-7.20
-9.23
-12.54
-17.46
-24.00
-31.93
-40.84
-50.09
-58.85
-66.00
-70.31
-70.67
-66.42
-57.62
-45.17
-30.49
-15.17
-0.58
12.43
23.49
32.52
39.54
44.58
47.65
48.86
48.47
46.84
44.41
41.72
39.26
37.46
36.53
36.38
36.68
36.91
36.57
35.30
32.88
29.19
24.20
17.99
10.80
3.08
-4.64
-11.97
-18.83
-25.50
-32.44
-40.14
-48.86
-58.53
-68.70
-78.48
-86.62
-91.70
-92.44
-88.09
-78.76
-65.46
-49.84
-33.67
-18.33
-4.59
7.42
17.92
27.16
35.20
41.90
47.03
50.44
52.18
52.56
52.07
51.15
50.08
48.87
47.31
45.13
42.18
38.50
34.23
29.48
24.17
18.03
10.83
2.48
-6.79
-16.51
-26.20
-35.57
-44.58
-53.31
-61.70
-69.31
-75.19
-78.10
-76.87
-70.90
-60.42
-46.50
-30.78
-14.94
-0.29
12.52
23.45
32.83
40.98
47.97
53.60
57.50
59.42
59.39
57.72
54.99
51.82
48.69
45.84
43.25
40.66
37.73
34.16
29.74
24.45
18.49
12.07
5.41
-1.43
-8.59
-16.25
-24.58
-33.61
-43.29
-53.57
-64.36
-75.44
-86.06
-94.86
-99.96
-99.61
-92.83
-80.00
-62.86
-43.81
-25.17
-8.33
6.31
19.08
30.49
40.77
49.80
57.27
62.92
66.72
68.79
69.32
68.54
66.65
63.92
60.66
57.19
53.79
50.52
47.28
43.77
39.61
34.46
28.13
20.67
12.39
3.72
-4.96
-13.43
-21.76
-30.32
-39.65
-50.27
-62.38
-75.53
-88.43
-99.11
-105.29
-105.15
-98.01
-84.70
-67.32
-48.51
-30.57
-14.76
-1.22
10.62
21.46
31.52
40.49
47.72
52.63
55.00
55.08
53.44
50.79
47.73
44.68
41.85
39.25
36.74
34.05
30.93
27.13
22.57
17.25
11.23
4.53
-2.94
-11.28
-20.56
-30.81
-41.95
-53.84
-66.14
-78.19
-88.86
-96.51
-99.40
-96.22
-86.59
-71.36
-52.28
-31.47
-10.78
8.61
26.12
41.52
54.57
65.03
72.65
77.42
79.66
79.89
78.76
76.81
74.53
72.30
70.36
68.77
67.37
65.76
63.47
60.05
55.25
49.01
41.48
32.93
23.80
14.58
5.73
-2.52
-10.31
-18.19
-26.99
-37.47
-49.91
-63.80
-77.69
-89.40
-96.52
-97.11
-90.33
-76.84
-58.59
-38.18
-17.95
0.68
17.38
32.54
46.65
59.78
71.49
81.10
88.09
92.36
94.21
94.14
92.57
89.72
85.70
80.63
74.81
68.68
62.80
57.66
53.48
50.07
46.78
42.73
37.07
29.40
19.92
9.42
-1.06
-10.69
-19.21
-27.00
-34.90
-43.87
-54.52
-66.93
-80.47
-93.82
-105.15
-112.45
-113.97
-108.80
-97.15
-80.34
-60.44
-39.56
-19.28
-0.35
17.13
33.34
48.27
61.52
72.51
80.72
86.09
89.00
90.16
90.34
90.10
89.71
89.18
88.30
86.76
84.26
80.61
75.80
70.00
63.43
56.31
48.70
40.50
31.62
22.13
12.32
2.66
-6.33
-14.42
-21.69
-28.58
-35.70
-43.69
-53.05
-64.00
-76.27
-88.99
-100.66
-109.33
-113.13
-110.77
-102.04
-87.87
-70.06
-50.66
-31.47
-13.59
2.54
16.90
29.56
40.50
49.47
56.24
60.70
63.03
63.70
63.31
62.39
61.26
60.01
58.59
56.96
55.14
53.17
51.03
48.59
45.66
42.14
38.06
33.59
28.88
24.01
18.91
13.44
7.54
1.25
-5.27
-11.94
-18.75
-25.82
-33.35
-41.53
-50.55
-60.56
-71.53
-83.02
-93.95
-102.64
-107.21
-106.15
-98.93
-86.25
-69.80
-51.63
-33.50
-16.45
-0.85
13.29
25.92
36.71
45.22
51.13
54.52
55.95
56.25
56.20
56.26
56.39
56.17
55.07
52.69
49.11
44.85
40.75
37.61
35.87
35.39
35.54
35.41
34.19
31.53
27.57
22.90
18.21
13.90
9.86
5.51
-0.01
-7.55
-17.53
-29.75
-43.25
-56.43
-67.39
-74.35
-76.12
-72.31
-63.45
-50.63
-35.14
-18.05
0.09
19.08
38.81
58.64
76.97
91.03
97.43
93.08
76.38
48.09
11.35
-29.07
-68.11
-101.71
-127.43
-144.55
-153.43
-155.06
-150.64
-141.68
-129.98
-117.54
-106.08
-96.53
-88.85
-82.12
-75.13
-66.89
-57.04
-45.94
-34.36
-23.27
-13.46
-5.58
-0.04
2.90
3.08
0.51
-4.52
-11.35
-18.93
-25.95
-31.12
-33.44
-32.45
-28.33
-21.76
-13.69
-5.02
3.63
11.90
19.60
26.47
32.08
35.81
37.21
36.25
33.59
30.48
28.42
28.59
31.35
36.12
41.61
46.38
49.37
50.28
49.59
48.24
47.17
46.91
47.42
48.18
48.67
48.67
48.46
48.53
49.22
50.36
51.37
51.65
50.95
49.34
46.88
43.08
37.00
27.81
15.73
2.58
-8.56
-14.56
-13.61
-6.02
6.07
19.78
32.77
43.90
53.08
60.60
66.49
70.34
71.61
70.12
66.34
61.30
56.19
52.04
49.48
48.69
49.49
51.55
54.55
58.35
62.96
68.50
74.83
81.20
86.04
87.14
82.46
71.04
53.56
32.29
10.26
-10.00
-27.31
-42.15
-55.98
-70.18
-85.07
-99.36
-110.51
-115.77
-113.40
-103.49
-88.05
-70.23
-53.11
-38.62
-27.01
-17.18
-7.53
3.30
16.13
31.41
49.35
69.65
90.92
110.27
123.64
127.02
118.06
97.40
68.84
38.41
12.69
-3.01
-5.80
4.43
25.38
53.13
83.07
110.69
132.27
145.39
149.13
143.99
131.47
113.53
91.94
67.89
41.67
12.56
-20.76
-59.63
-104.54
-154.34
-205.93
-254.62
-295.25
-323.55
-337.46
-337.52
-326.39
-307.65
-284.48
-258.97
-232.12
-204.61
-177.67
-153.48
-134.68
-123.34
-119.92
-122.83
-129.14
-135.89
-141.33
-145.52
-149.75
-155.33
-162.69
-171.10
-179.13
-185.53
-189.66
-191.45
-190.93
-187.85
-181.59
-171.54
-157.54
-140.00
-119.87
-98.31
-76.43
-55.11
-35.00
-16.45
0.36
15.38
28.57
39.76
48.76
55.51
60.17
63.17
64.96
65.84
65.81
64.68
62.15
58.15
52.89
46.98
41.17
36.04
31.59
27.09
21.13
12.13
-1.06
-18.55
-39.24
-61.02
-81.33
-97.91
-109.25
-114.88
-115.18
-111.14
-103.93
-94.58
-83.92
-72.47
-60.65
-48.90
-37.73
-27.59
-18.75
-11.07
-4.03
3.12
11.17
20.69
31.85
44.37
57.58
70.48
82.04
91.31
97.64
100.76
100.78
98.02
93.02
86.40
78.78
70.69
62.40
53.92
45.13
36.21
27.90
21.61
19.08
21.68
29.84
42.79
58.76
75.61
91.44
105.09
116.28
125.46
133.60
141.86
151.20
162.15
174.66
188.04
201.13
212.49
220.66
224.33
222.48
214.38
199.85
179.41
154.46
127.29
100.64
77.02
57.96
43.68
33.21
25.07
18.00
11.38
5.13
-0.81
-6.72
-13.01
-19.68
-25.97
-30.63
-32.67
-32.10
-30.12
-28.46
-28.38
-30.03
-32.56
-34.95
-36.93
-39.35
-43.61
-50.73
-60.48
-71.28
-80.75
-86.74
-88.00
-84.50
-77.10
-67.14
-55.70
-43.31
-29.83
-14.81
2.05
20.41
39.24
57.26
73.51
87.74
100.38
111.95
122.33
130.54
134.99
134.37
128.65
119.34
109.12
100.66
95.37
92.74
90.64
86.35
77.93
65.22
49.98
35.15
23.80
18.11
18.83
25.21
35.36
46.86
57.30
64.85
68.49
68.18
64.54
58.56
51.16
43.01
34.44
25.67
16.90
8.47
0.75
-6.00
-11.59
-15.97
-19.19
-21.56
-23.71
-26.70
-31.79
-40.09
-52.12
-67.44
-84.51
-101.02
-114.44
-122.77
-125.10
-121.84
-114.37
-104.40
-93.28
-81.51
-68.77
-54.31
-37.52
-18.43
2.04
22.28
40.40
54.67
64.00
68.13
67.59
63.39
56.74
48.73
40.19
31.68
23.58
16.13
9.39
3.18
-2.78
-8.89
-15.32
-22.01
-28.68
-35.13
-41.45
-48.11
-55.67
-64.31
-73.49
-81.84
-87.49
-88.80
-84.92
-76.11
-63.62
-49.25
-34.76
-21.48
-10.14
-0.85
6.57
12.38
16.82
19.98
21.95
22.91
23.17
23.11
23.03
22.96
22.67
21.85
20.32
18.14
15.66
13.24
11.07
9.03
6.81
4.11
0.82
-2.99
-7.14
-11.44
-15.84
-20.35
-25.06
-30.17
-35.76
-41.81
-47.94
-53.42
-57.21
-58.28
-55.94
-50.07
-41.14
-30.10
-18.04
-6.02
5.14
14.89
22.98
29.37
34.08
37.07
38.14
37.17
34.31
30.13
25.64
21.89
19.58
18.79
19.09
19.78
20.29
20.29
19.65
18.26
15.96
12.60
8.16
2.84
-3.10
-9.41
-15.96
-22.75
-29.81
-37.21
-45.03
-53.34
-62.08
-70.86
-78.79
-84.59
-86.86
-84.63
-77.70
-66.79
-53.21
-38.54
-24.16
-11.00
0.41
9.75
16.85
21.62
24.24
25.32
25.78
26.56
28.24
30.61
32.80
33.68
32.55
29.54
25.70
22.45
20.83
20.99
22.07
22.73
21.76
18.56
13.31
6.70
-0.46
-7.62
-14.60
-21.58
-28.91
-36.89
-45.62
-54.83
-63.80
-71.51
-76.70
-78.27
-75.45
-68.06
-56.52
-41.82
-25.29
-8.33
7.82
22.29
34.61
44.65
52.61
58.82
63.77
67.87
71.48
74.71
77.49
79.62
81.01
81.76
82.18
82.63
83.24
83.70
83.20
80.58
74.60
64.21
48.86
28.69
4.60
-21.81
-48.63
-74.19
-97.48
-118.38
-137.47
-155.47
-172.56
-188.11
-200.66
-208.44
-209.95
-204.40
-191.91
-173.38
-150.20
-123.96
-96.19
-68.25
-41.31
-16.35
5.85
24.68
39.89
51.54
60.10
66.28
70.84
74.47
77.58
80.31
82.59
84.22
85.02
84.87
83.69
81.42
77.97
73.23
67.09
59.55
50.89
41.56
32.27
23.64
16.01
9.24
2.63
-4.78
-13.80
-24.54
-36.10
-46.58
-53.65
-55.33
-50.68
-40.22
-25.73
-9.67
5.56
18.19
27.35
33.03
35.84
36.83
37.07
37.48
38.60
40.53
43.06
45.85
48.59
51.08
53.19
54.78
55.71
55.96
55.62
54.95
54.13
53.12
51.64
49.31
45.80
40.94
34.59
26.51
16.37
3.90
-10.87
-27.31
-44.10
-59.52
-71.83
-79.72
-82.66
-80.94
-75.50
-67.72
-59.04
-50.65
-43.36
-37.50
-33.09
-29.96
-27.93
-26.72
-26.03
-25.41
-24.43
-22.82
-20.58
-17.96
-15.27
-12.67
-10.06
-7.29
-4.34
-1.58
0.29
0.53
-1.30
-5.16
-10.52
-16.72
-23.17
-29.52
-35.57
-41.19
-46.32
-50.99
-55.42
-59.89
-64.44
-68.67
-71.59
-71.95
-68.73
-61.63
-51.26
-38.89
-25.96
-13.54
-2.14
8.34
18.23
27.87
37.33
46.40
54.68
61.71
67.09
70.60
72.27
72.34
71.27
69.50
67.48
65.47
63.64
62.05
60.66
59.33
57.82
55.81
53.03
49.30
44.64
39.16
32.94
25.84
17.62
7.92
-3.41
-16.19
-29.70
-42.75
-53.86
-61.51
-64.57
-62.59
-55.91
-45.59
-33.08
-19.85
-7.12
4.24
13.72
21.04
26.07
28.92
29.87
29.39
27.92
25.76
22.90
19.14
14.27
8.26
1.48
-5.35
-11.48
-16.33
-19.72
-21.88
-23.27
-24.41
-25.70
-27.40
-29.61
-32.30
-35.32
-38.48
-41.60
-44.66
-47.84
-51.44
-55.61
-60.01
-63.63
-64.87
-62.04
-53.88
-40.18
-22.02
-1.65
17.97
33.95
44.16
47.73
45.08
37.49
26.45
13.16
-1.82
-18.28
-36.00
-54.34
-71.99
-87.14
-97.85
-102.57
-100.49
-91.80
-77.74
-60.28
-41.77
-24.41
-9.81
1.25
8.76
13.33
15.89
17.44
18.81
20.51
22.62
24.63
25.57
24.38
20.43
14.02
6.57
0.33
-2.30
0.36
8.73
21.74
37.49
53.90
69.39
83.25
95.45
106.37
116.43
125.89
134.73
142.63
148.92
152.68
152.99
149.35
141.99
132.04
121.20
111.22
103.25
97.58
93.67
90.54
87.26
83.32
78.76
74.05
69.86
66.74
64.81
63.76
62.98
61.73
59.44
55.90
51.37
46.36
41.59
37.67
34.78
32.32
28.80
22.14
10.23
-8.11
-32.43
-60.55
-89.07
-114.62
-134.92
-149.33
-158.77
-164.91
-169.37
-173.10
-176.21
-178.14
-178.00
-174.98
-168.37
-157.72
-142.95
-124.44
-103.06
-80.23
-57.85
-37.80
-21.57
-9.96
-2.90
0.45
1.24
0.43
-1.47
-4.46
-8.79
-14.65
-21.96
-30.22
-38.46
-45.33
-49.25
-48.83
-43.34
-33.05
-19.21
-3.66
11.76
25.88
38.44
49.85
60.69
71.36
81.74
91.31
99.42
105.49
109.11
110.17
108.87
105.68
101.27
96.43
91.79
87.72
84.30
81.37
78.59
75.54
71.74
66.80
60.54
53.14
45.14
37.24
30.04
23.78
18.18
12.60
6.28
-1.29
-10.05
-19.26
-27.55
-33.17
-34.42
-30.06
-19.70
-3.80
16.47
39.66
64.38
89.64
114.77
139.36
163.03
185.39
206.08
224.82
241.58
256.46
269.49
280.34
288.01
290.79
286.68
274.06
252.42
222.74
187.31
148.92
109.85
71.17
32.77
-5.95
-45.15
-83.91
-120.45
-152.94
-180.62
-204.45
-226.98
-251.40
-280.46
-315.60
-356.51
-401.01
-445.13
-483.29
-509.04
-516.44
-502.16
-467.06
-416.50
-358.83
-302.43
-252.82
-211.39
-176.03
-143.41
-111.27
-79.57
-49.83
-23.69
-1.50
17.75
35.61
52.84
68.79
81.70
89.87
92.80
91.58
88.38
85.32
83.40
82.03
79.50
73.92
64.27
51.04
36.06
21.74
10.13
2.10
-2.87
-6.36
-10.44
-16.78
-26.22
-38.41
-51.88
-64.42
-73.65
-77.71
-75.82
-68.51
-57.36
-44.31
-30.92
-17.91
-5.17
7.80
21.37
35.43
49.46
62.71
74.61
84.74
92.87
98.85
102.49
103.71
102.56
99.30
94.39
88.47
82.23
76.32
71.17
66.84
62.95
58.82
53.75
47.32
39.61
31.10
22.42
14.04
6.07
-1.74
-9.86
-18.81
-28.94
-40.39
-52.96
-65.95
-78.06
-87.49
-92.28
-90.86
-82.64
-68.27
-49.47
-28.56
-7.66
11.76
29.14
44.61
58.55
71.16
82.21
91.18
97.49
100.82
101.35
99.68
96.69
93.14
89.51
85.91
82.18
78.17
73.84
69.28
64.57
59.62
54.04
47.37
39.23
29.69
19.34
9.11
-0.08
-7.74
-14.00
-19.62
-25.68
-33.20
-42.84
-54.67
-68.04
-81.61
-93.50
-101.67
-104.40
-100.81
-91.18
-76.75
-59.41
-40.99
-22.90
-5.93
9.64
23.72
36.13
46.60
54.75
60.33
63.40
64.40
64.06
63.19
62.36
61.71
60.99
59.76
57.76
55.06
52.03
49.03
46.13
42.97
38.88
33.24
25.82
16.79
6.66
-3.93
-14.39
-24.25
-33.18
-41.02
-47.84
-53.99
-59.97
-66.07
-71.96
-76.48
-77.77
-73.85
-63.38
-46.32
-23.91
1.54
27.38
51.11
70.81
85.16
93.45
95.44
91.51
82.65
70.46
56.87
43.75
32.47
23.58
16.81
11.33
6.24
0.95
-4.50
-9.47
-13.18
-15.20
-15.64
-15.32
-15.21
-16.05
-17.94
-20.37
-22.55
-23.75
-23.71
-22.63
-21.10
-19.88
-19.69
-21.04
-24.02
-28.20
-32.58
-35.92
-37.18
-36.07
-33.25
-30.08
-28.05
-28.09
-30.28
-33.90
-37.97
-41.75
-45.07
-48.24
-51.91
-56.67
-62.74
-69.89
-77.27
-83.59
-87.34
-87.11
-82.10
-72.40
-58.94
-43.16
-26.59
-10.54
4.12
16.77
27.00
34.45
38.96
40.63
39.85
37.30
33.72
29.70
25.54
21.17
16.29
10.46
3.30
-5.35
-15.47
-26.72
-38.43
-49.62
-58.93
-64.89
-66.26
-62.41
-53.66
-41.14
-26.46
-11.16
3.69
17.69
30.78
42.99
54.13
63.81
71.53
76.99
80.17
81.33
80.92
79.40
77.14
74.37
71.17
67.58
63.60
59.40
55.24
51.50
48.40
45.90
43.53
40.51
36.05
29.64
21.35
11.77
1.81
-7.65
-16.11
-23.55
-30.39
-37.24
-44.71
-53.22
-62.89
-73.47
-84.18
-93.67
-100.13
-101.79
-97.38
-86.70
-70.73
-51.40
-30.96
-11.32
6.32
21.53
34.28
44.69
52.74
58.42
61.80
63.25
63.34
62.67
61.62
60.23
58.39
56.00
53.17
50.29
47.80
45.90
44.35
42.50
39.51
34.75
28.00
19.67
10.51
1.45
-6.82
-14.09
-20.63
-27.16
-34.59
-43.71
-54.91
-67.88
-81.56
-94.17
-103.53
-107.58
-104.98
-95.59
-80.52
-61.94
-42.34
-23.89
-7.89
5.35
16.14
25.00
32.25
37.89
41.75
43.77
44.20
43.54
42.37
41.12
39.91
38.61
37.08
35.23
33.20
31.18
29.14
26.74
23.37
18.42
11.59
3.13
-6.27
-15.70
-24.49
-32.39
-39.65
-46.92
-54.93
-64.28
-75.13
-86.89
-98.13
-106.74
-110.41
-107.42
-97.29
-81.09
-61.09
-40.01
-20.16
-2.86
11.60
23.58
33.63
42.05
48.83
53.79
56.81
58.03
57.77
56.45
54.44
51.99
49.24
46.33
43.41
40.63
37.95
35.11
31.71
27.37
21.92
15.54
8.61
1.52
-5.51
-12.43
-19.34
-26.41
-33.93
-42.29
-51.99
-63.18
-75.37
-87.03
-95.85
-99.35
-95.87
-85.28
-69.10
-49.94
-30.54
-12.93
1.97
14.24
24.37
32.84
39.77
45.03
48.35
49.62
48.96
46.75
43.49
39.73
35.92
32.39
29.30
26.61
24.18
21.71
18.83
15.24
10.82
5.67
0.08
-5.54
-11.00
-16.32
-21.91
-28.36
-36.31
-46.08
-57.53
-69.85
-81.58
-90.81
-95.56
-94.39
-86.82
-73.57
-56.39
-37.50
-19.00
-2.38
11.66
23.08
32.22
39.47
45.15
49.44
52.45
54.23
54.92
54.67
53.71
52.31
50.66
48.88
47.04
45.20
43.54
42.27
41.50
41.05
40.37
38.71
35.36
29.93
22.53
13.56
3.51
-7.37
-19.10
-31.78
-45.20
-58.51
-70.17
-78.29
-81.16
-77.91
-68.74
-54.88
-38.13
-20.25
-2.54
14.29
29.90
44.11
56.62
67.04
75.00
80.41
83.57
85.09
85.71
85.96
85.95
85.35
83.66
80.55
76.28
71.76
68.28
66.88
67.77
70.00
71.72
70.93
66.32
57.98
47.35
36.67
28.10
22.74
20.18
18.67
15.87
9.84
0.06
-12.23
-24.21
-32.18
-32.56
-22.92
-2.92
25.14
56.12
82.73
97.23
93.86
71.27
33.74
-9.77
-48.63
-74.33
-83.26
-77.12
-60.98
-40.39
-19.08
1.47
21.04
39.20
54.63
65.54
70.90
71.06
67.59
62.19
55.27
45.55
30.57
7.95
-23.04
-60.76
-101.40
-140.09
-172.38
-195.62
-209.51
-215.80
-217.29
-216.59
-215.21
-213.19
-209.40
-202.18
-190.18
-172.96
-151.20
-126.54
-100.96
-76.16
-53.18
-32.31
-13.40
3.82
19.39
33.17
44.99
54.75
62.49
68.33
72.35
74.49
74.68
73.02
69.85
65.76
61.52
57.82
55.10
53.41
52.38
51.35
49.60
46.60
42.24
36.80
30.80
24.71
18.76
12.74
6.18
-1.51
-10.62
-20.94
-31.57
-40.99
-47.48
-49.66
-46.94
-39.74
-29.40
-17.59
-5.71
5.41
15.57
24.85
33.19
40.29
45.75
49.46
51.77
53.35
54.77
56.09
56.76
55.98
53.14
48.34
42.28
35.90
29.89
24.33
18.93
13.36
7.67
2.30
-2.22
-5.71
-8.55
-11.54
-15.55
-21.05
-28.01
-36.10
-44.99
-54.46
-64.24
-73.60
-81.25
-85.39
-84.38
-77.42
-65.03
-48.93
-31.50
-14.96
-0.62
11.26
21.18
29.84
37.64
44.52
50.08
53.95
55.97
56.28
55.21
53.12
50.28
46.91
43.29
39.74
36.57
33.91
31.70
29.56
27.04
23.73
19.39
14.01
7.80
1.13
-5.57
-11.95
-17.95
-23.88
-30.44
-38.36
-47.95
-58.68
-69.04
-76.84
-79.87
-76.62
-66.96
-52.09
-34.22
-15.82
1.11
15.54
27.48
37.56
46.56
54.91
62.44
68.61
72.85
74.87
74.87
73.33
70.81
67.67
64.12
60.28
56.39
52.70
49.42
46.53
43.71
40.48
36.42
31.36
25.42
18.95
12.36
6.02
0.21
-4.91
-9.31
-13.16
-16.95
-21.41
-27.20
-34.47
-42.47
-49.42
-52.86
-50.44
-40.84
-24.34
-2.96
20.32
42.48
61.52
76.91
89.42
100.50
111.62
123.92
138.05
154.05
171.01
186.77
197.82
199.95
189.57
165.27
128.94
85.54
41.60
3.06
-26.49
-46.33
-57.91
-63.39
-64.44
-61.74
-55.42
-45.85
-34.22
-22.76
-14.29
-11.54
-16.39
-29.54
-50.32
-76.88
-106.44
-135.53
-160.65
-178.88
-188.49
-189.39
-183.13
-172.48
-160.73
-150.77
-144.56
-142.86
-145.37
-151.17
-158.92
-167.07
-174.03
-178.19
-178.26
-173.54
-164.11
-150.79
-134.85
-117.58
-100.02
-82.78
-66.14
-50.36
-35.87
-23.31
-13.29
-6.11
-1.67
0.57
1.33
1.18
0.37
-1.24
-4.04
-8.47
-14.72
-22.56
-31.07
-38.69
-43.45
-43.57
-38.04
-27.00
-11.77
5.75
23.64
40.55
55.81
69.28
81.07
91.36
100.31
108.11
114.89
120.63
125.00
127.57
127.90
125.94
122.13
117.32
112.48
108.33
105.16
102.69
100.31
97.33
93.27
88.06
82.13
76.20
70.99
66.93
63.95
61.51
58.84
55.26
50.40
44.35
37.60
31.01
25.61
22.53
22.84
27.37
36.53
50.18
67.63
87.69
108.81
129.26
147.20
160.76
168.16
168.17
160.59
146.34
127.28
105.42
82.03
57.11
29.42
-3.05
-42.40
-90.26
-146.87
-210.32
-275.83
-335.99
-382.24
-407.45
-408.41
-387.06
-349.55
-303.80
-256.71
-212.65
-173.74
-140.90
-114.93
-96.37
-84.80
-78.20
-73.28
-66.77
-56.86
-43.89
-29.75
-16.82
-6.54
1.44
9.14
19.48
34.75
55.12
77.74
97.05
106.54
101.62
81.91
52.11
20.58
-4.06
-16.40
-16.26
-8.27
0.81
5.51
3.95
-1.99
-8.37
-11.66
-10.74
-7.24
-4.48
-5.82
-13.03
-25.96
-42.91
-61.62
-79.95
-96.03
-107.82
-113.21
-110.79
-100.97
-86.68
-72.53
-62.73
-58.61
-57.18
-52.15
-36.92
-8.09
32.52
78.46
121.60
155.57
177.86
189.60
193.77
193.07
188.93
182.04
173.17
163.90
156.28
151.67
149.97
149.21
146.55
139.63
127.78
112.32
95.83
81.04
69.64
61.70
55.69
49.21
39.97
26.93
10.95
-5.20
-17.60
-22.65
-18.50
-5.86
12.20
31.46
48.13
60.16
67.61
72.17
75.98
80.56
86.14
91.88
96.52
99.25
100.20
100.46
101.45
104.11
108.44
113.51
118.08
121.12
122.15
121.12
118.10
113.20
106.86
100.28
95.63
95.60
102.36
116.33
135.48
155.56
171.25
177.84
172.59
155.24
127.63
92.70
53.60
13.25
-25.58
-60.11
-87.66
-106.21
-115.11
-115.49
-109.82
-100.95
-91.00
-80.63
-69.31
-56.17
-40.85
-23.96
-6.93
8.64
21.45
30.83
36.69
39.24
39.00
36.71
33.20
29.24
25.11
20.32
13.61
3.40
-11.72
-32.28
-57.77
-86.82
-117.67
-148.68
-178.65
-206.85
-232.86
-256.45
-277.47
-295.81
-311.28
-323.27
-330.62
-331.69
-324.86
-309.33
-285.66
-256.00
-223.49
-191.35
-161.93
-136.20
-113.96
-94.42
-76.75
-60.43
-45.19
-30.75
-16.79
-3.05
10.37
22.97
33.97
42.66
48.78
52.56
54.61
55.49
55.59
54.88
53.14
50.02
45.33
38.99
31.03
21.65
11.05
-0.45
-12.60
-25.30
-38.62
-52.66
-67.23
-81.56
-94.12
-102.95
-106.24
-102.98
-93.45
-79.11
-62.08
-44.44
-27.56
-11.83
3.04
17.66
32.47
47.43
62.04
75.56
87.24
96.53
103.17
107.07
108.30
106.96
103.25
97.58
90.69
83.55
77.10
71.92
67.91
64.28
59.87
53.66
45.21
34.69
22.59
9.22
-5.51
-21.92
-40.02
-59.07
-77.61
-94.07
-107.70
-119.13
-130.07
-142.21
-155.87
-169.31
-179.20
-181.95
-175.40
-159.80
-137.60
-112.37
-87.31
-64.34
-43.88
-25.42
-8.34
7.53
21.75
33.60
42.46
48.18
51.13
52.12
52.03
51.50
50.86
50.29
49.99
50.40
51.95
54.76
58.33
61.50
63.00
61.95
58.36
53.04
47.17
41.59
36.48
31.41
25.75
19.01
10.94
1.42
-9.77
-22.82
-37.56
-53.19
-68.22
-80.89
-89.57
-93.32
-91.98
-86.01
-76.35
-64.20
-50.97
-38.18
-27.15
-18.63
-12.55
-8.00
-3.62
1.89
9.42
19.31
31.50
45.63
61.17
77.37
93.25
107.59
119.01
126.22
128.24
124.61
115.63
102.39
86.56
70.05
54.50
40.86
29.38
19.69
11.24
3.56
-3.64
-10.45
-16.73
-22.07
-25.56
-25.87
-21.61
-11.76
3.71
23.70
46.25
69.06
90.20
108.48
123.53
135.55
145.03
152.37
157.76
161.08
161.95
159.81
154.20
145.04
132.83
118.69
104.16
90.81
79.75
71.43
65.45
60.75
55.89
49.42
40.26
27.99
12.81
-4.67
-23.89
-44.70
-67.44
-92.74
-120.99
-151.81
-183.67
-214.02
-239.55
-256.75
-262.55
-255.06
-234.12
-201.69
-161.70
-119.24
-79.27
-45.44
-19.39
-0.94
11.08
17.95
20.47
19.07
14.28
7.16
-0.74
-7.75
-12.76
-15.54
-16.71
-17.35
-18.40
-20.22
-22.66
-25.20
-27.33
-28.80
-29.71
-30.47
-31.58
-33.51
-36.56
-40.95
-46.73
-53.70
-61.28
-68.32
-73.16
-73.98
-69.37
-58.87
-43.20
-24.03
-3.40
16.91
35.83
53.02
68.53
82.50
94.86
105.34
113.61
119.42
122.75
123.73
122.67
119.97
116.14
111.73
107.29
103.31
100.10
97.74
95.96
94.26
91.92
88.27
82.88
75.74
67.28
58.24
49.29
40.82
32.70
24.34
14.91
3.64
-9.71
-24.64
-39.79
-53.18
-62.71
-66.72
-64.51
-56.55
-44.19
-29.18
-13.03
3.35
19.59
35.57
50.99
65.07
76.69
84.85
89.12
89.86
88.12
85.18
82.02
79.09
76.27
73.21
69.74
66.05
62.65
60.10
58.67
58.15
58.00
57.61
56.57
54.78
52.39
49.54
46.20
42.02
36.48
29.00
19.18
6.83
-7.98
-24.92
-43.21
-61.57
-78.26
-91.47
-99.74
-102.57
-100.57
-95.25
-88.44
-81.71
-75.91
-71.19
-67.27
-63.88
-61.07
-59.37
-59.55
-62.40
-68.30
-76.93
-87.27
-97.80
-106.91
-113.36
-116.61
-116.79
-114.46
-110.36
-105.16
-99.44
-93.74
-88.53
-84.15
-80.53
-77.26
-73.73
-69.56
-64.93
-60.68
-57.95
-57.60
-59.69
-63.16
-65.91
-65.31
-58.82
-44.71
-22.62
6.28
39.33
72.90
103.19
127.02
142.50
149.26
148.23
141.21
130.35
117.81
105.50
94.94
87.21
82.69
81.05
81.33
82.22
82.50
81.33
78.38
73.66
67.21
58.92
48.50
35.77
20.88
4.45
-12.57
-29.27
-45.09
-60.08
-74.77
-89.96
-106.33
-124.05
-142.60
-160.63
-176.19
-187.16
-191.83
-189.43
-180.32
-165.83
-147.78
-127.90
-107.56
-87.59
-68.53
-50.80
-34.80
-20.95
-9.52
-0.54
6.21
11.31
15.59
19.95
25.16
31.61
39.21
47.45
55.72
63.47
70.36
76.11
80.46
83.09
83.81
82.74
80.38
77.45
74.60
72.13
69.95
67.70
64.93
61.18
55.98
48.84
39.43
27.95
15.51
4.11
-3.82
-6.19
-2.00
8.30
23.07
40.13
57.55
74.11
89.28
102.87
114.61
123.82
129.54
130.87
127.38
119.34
107.64
93.47
77.95
61.88
45.74
29.90
14.90
1.59
-9.04
-16.26
-19.95
-20.76
-19.89
-18.62
-17.78
-17.48
-17.31
-16.74
-15.62
-14.45
-14.08
-15.31
-18.45
-23.25
-29.19
-35.91
-43.36
-51.56
-60.14
-67.93
-73.16
-74.04
-69.55
-60.01
-46.99
-32.68
-19.05
-7.24
2.56
10.69
17.54
23.14
27.18
29.28
29.37
27.80
25.26
22.51
20.08
18.16
16.66
15.37
14.07
12.60
10.81
8.53
5.59
1.84
-2.78
-8.18
-14.18
-20.58
-27.22
-33.99
-40.90
-48.16
-56.09
-65.07
-75.20
-86.03
-96.41
-104.58
-108.71
-107.52
-100.76
-89.32
-74.88
-59.32
-44.16
-30.27
-17.97
-7.25
1.89
9.33
14.91
18.52
20.21
20.33
19.35
17.81
16.13
14.54
13.05
11.45
9.49
6.89
3.51
-0.74
-5.84
-11.68
-18.07
-24.77
-31.49
-37.96
-44.02
-49.72
-55.35
-61.41
-68.37
-76.51
-85.61
-94.70
-102.21
-106.24
-105.15
-98.12
-85.42
-68.41
-48.97
-28.96
-9.68
8.30
24.95
40.37
54.48
66.93
77.20
84.86
89.79
92.18
92.43
91.01
88.38
84.95
81.11
77.21
73.47
69.85
65.97
61.27
55.10
47.04
37.02
25.42
12.95
0.45
-11.38
-22.15
-31.85
-40.83
-49.54
-58.30
-66.95
-74.78
-80.57
-82.89
-80.52
-72.79
-59.80
-42.37
-21.80
0.50
23.29
45.60
66.73
85.97
102.55
115.56
124.19
127.96
126.94
121.68
112.93
101.31
87.16
70.68
52.30
32.91
13.89
-3.36
-17.83
-29.24
-37.90
-44.31
-48.71
-51.07
-51.42
-50.24
-48.57
-47.55
-47.88
-49.52
-51.95
-54.90
-58.79
-64.56
-72.77
-82.72
-92.13
-97.83
-97.15
-89.15
-74.94
-57.01
-38.07
-19.96
-3.38
11.66
25.24
37.04
46.45
52.93
56.36
57.19
56.28
54.49
52.48
50.50
48.48
46.11
43.11
39.30
34.70
29.48
23.90
18.19
12.51
6.95
1.59
-3.50
-8.24
-12.53
-16.45
-20.30
-24.60
-30.01
-37.01
-45.59
-54.98
-63.67
-69.69
-71.25
-67.27
-57.72
-43.65
-26.79
-9.00
8.26
24.11
38.21
50.48
60.77
68.73
74.01
76.39
76.10
73.74
70.17
66.15
62.14
58.28
54.49
50.66
46.78
42.88
38.89
34.53
29.40
23.16
15.72
7.39
-1.33
-9.88
-18.00
-25.78
-33.62
-42.04
-51.57
-62.45
-74.56
-87.16
-98.98
-108.28
-113.25
-112.62
-106.04
-94.28
-78.95
-61.93
-44.84
-28.65
-13.78
-0.25
11.96
22.76
31.90
39.13
44.32
47.56
49.19
49.78
50.00
50.49
51.72
53.82
56.59
59.58
62.22
63.94
64.37
63.32
60.78
56.92
52.03
46.49
40.74
35.13
29.85
24.83
19.74
14.26
8.43
2.94
-0.73
-0.67
4.78
16.33
33.30
53.87
75.63
96.53
115.44
132.35
148.00
163.30
178.88
194.80
210.64
225.70
239.15
250.16
258.05
262.47
263.51
261.83
258.28
253.49
247.37
238.95
226.70
209.27
186.16
158.18
127.14
95.18
63.84
33.52
3.45
-27.82
-61.63
-98.48
-137.66
-177.17
-214.16
-245.54
-268.64
-281.92
-285.36
-280.59
-270.46
-258.31
-246.88
-237.45
-229.55
-221.24
-210.22
-195.04
-175.91
-154.82
-134.74
-118.46
-107.47
-101.51
-98.84
-97.05
-93.95
-88.15
-79.19
-67.36
-53.46
-38.65
-24.28
-11.85
-2.73
2.07
2.35
-1.14
-6.82
-12.61
-16.62
-17.69
-15.78
-11.91
-7.74
-4.92
-4.50
-6.57
-10.33
-14.54
-18.07
-20.43
-21.81
-22.98
-24.92
-28.44
-34.01
-41.65
-50.89
-60.70
-69.55
-75.56
-76.96
-72.58
-62.31
-47.25
-29.29
-10.57
7.21
23.05
36.62
47.95
57.11
64.09
68.84
71.40
72.07
71.29
69.48
67.01
64.03
60.63
56.88
52.88
48.76
44.61
40.38
35.91
30.94
25.22
18.59
11.14
3.08
-5.22
-13.48
-21.58
-29.68
-38.16
-47.51
-58.06
-69.70
-81.77
-92.91
-101.38
-105.44
-103.82
-96.16
-83.16
-66.33
-47.61
-28.79
-11.14
4.71
18.57
30.40
40.08
47.45
52.38
54.99
55.65
54.92
53.35
51.31
49.03
46.66
44.41
42.54
41.25
40.45
39.72
38.46
36.12
32.45
27.60
22.06
16.40
11.00
5.94
0.91
-4.62
-11.32
-19.67
-29.77
-41.06
-52.26
-61.44
-66.55
-66.05
-59.41
-47.42
-31.89
-15.16
0.69
14.34
25.38
34.10
41.11
46.85
51.40
54.53
55.94
55.51
53.50
50.51
47.19
44.06
41.30
38.83
36.47
34.19
32.13
30.52
29.43
28.61
27.50
25.51
22.23
17.64
12.07
6.03
0.05
-5.55
-10.66
-15.44
-20.27
-25.55
-31.53
-37.98
-44.09
-48.40
-49.21
-45.06
-35.33
-20.43
-1.74
18.91
39.75
59.47
77.35
92.94
105.78
115.15
120.17
119.96
113.76
100.91
80.92
53.68
20.01
-17.86
-56.14
-89.98
-114.56
-126.47
-124.74
-111.08
-89.34
-64.37
-40.86
-22.43
-11.22
-7.89
-11.84
-21.62
-35.41
-51.43
-68.23
-84.59
-99.36
-111.27
-118.97
-121.28
-117.58
-108.06
-93.78
-76.40
-57.73
-39.31
-22.21
-7.07
5.69
15.71
22.59
26.11
26.40
24.14
20.47
16.70
13.96
12.88
13.38
14.92
16.65
17.84
18.02
17.06
15.08
12.34
9.11
5.56
1.70
-2.57
-7.42
-13.08
-19.80
-27.80
-37.20
-47.79
-58.78
-68.70
-75.59
-77.55
-73.36
-63.10
-48.15
-30.82
-13.58
1.68
13.98
23.19
29.64
33.75
35.76
35.77
33.88
30.29
25.41
19.75
13.87
8.24
3.20
-1.11
-4.74
-7.84
-10.68
-13.44
-16.21
-18.99
-21.71
-24.29
-26.74
-29.11
-31.51
-34.18
-37.42
-41.67
-47.29
-54.28
-62.05
-69.28
-74.14
-74.74
-69.83
-59.18
-43.76
-25.43
-6.27
11.95
28.24
42.41
54.73
65.54
74.85
82.37
87.61
90.26
90.39
88.45
85.13
81.12
76.96
73.06
69.62
66.76
64.32
61.96
59.09
55.05
49.42
42.17
33.69
24.65
15.69
7.26
-0.52
-7.87
-15.27
-23.39
-32.89
-44.13
-56.77
-69.59
-80.51
-87.16
-87.57
-80.86
-67.65
-49.80
-29.84
-10.20
7.40
22.16
34.08
43.56
51.04
56.74
60.64
62.66
62.79
61.30
58.68
55.55
52.46
49.68
47.24
45.02
42.82
40.50
37.88
34.80
31.02
26.40
20.88
14.66
8.03
1.35
-5.25
-11.91
-19.07
-27.29
-36.94
-47.91
-59.27
-69.40
-76.28
-78.06
-73.69
-63.29
-48.18
-30.37
-12.01
5.23
20.35
32.97
43.06
50.64
55.70
58.24
58.41
56.58
53.36
49.47
45.57
42.11
39.32
37.19
35.56
34.10
32.38
29.95
26.36
21.41
15.15
7.94
0.28
-7.32
-14.57
-21.49
-28.39
-35.77
-44.17
-53.85
-64.60
-75.46
-84.80
-90.69
-91.37
-85.91
-74.51
-58.41
-39.55
-19.97
-1.30
15.39
29.64
41.36
50.65
57.65
62.49
65.33
66.41
66.11
64.98
63.53
62.18
61.02
59.79
58.08
55.45
51.63
46.57
40.34
33.06
24.83
15.78
6.16
-3.65
-13.24
-22.34
-30.90
-39.15
-47.55
-56.48
-66.06
-75.82
-84.68
-91.14
-93.60
-90.90
-82.73
-69.78
-53.48
-35.57
-17.51
-0.15
16.24
31.68
46.09
59.05
69.85
77.77
82.40
83.82
82.54
79.25
74.65
69.27
63.53
57.75
52.30
47.44
43.26
39.57
35.94
31.83
26.80
20.71
13.67
6.04
-1.77
-9.52
-17.18
-25.07
-33.68
-43.45
-54.42
-65.94
-76.56
-84.36
-87.43
-84.58
-75.72
-62.01
-45.38
-28.00
-11.55
3.04
15.59
26.35
35.47
42.88
48.13
50.78
50.69
48.23
44.31
40.07
36.42
33.81
32.09
30.71
29.04
26.59
23.22
19.01
14.15
8.84
3.21
-2.69
-8.82
-15.17
-21.74
-28.63
-36.08
-44.38
-53.66
-63.71
-73.62
-81.89
-86.69
-86.48
-80.56
-69.41
-54.53
-37.91
-21.35
-6.01
7.70
19.86
30.69
40.16
48.06
54.03
57.88
59.62
59.50
57.93
55.37
52.27
48.95
45.67
42.52
39.48
36.38
33.02
29.19
24.72
19.58
13.80
7.52
0.93
-5.81
-12.69
-19.85
-27.66
-36.52
-46.60
-57.58
-68.38
-77.35
-82.60
-82.63
-76.79
-65.59
-50.53
-33.59
-16.70
-1.15
12.47
24.20
34.35
43.17
50.63
56.48
60.36
62.03
61.50
59.10
55.42
51.09
46.72
42.69
39.11
35.86
32.65
29.15
25.09
20.34
14.94
9.01
2.69
-3.91
-10.76
-17.90
-25.41
-33.51
-42.39
-52.09
-62.25
-71.89
-79.43
-83.06
-81.35
-73.87
-61.39
-45.75
-29.15
-13.48
0.22
11.72
21.27
29.10
35.13
39.06
40.59
39.77
37.12
33.47
29.70
26.43
23.91
21.97
20.23
18.24
15.65
12.28
8.19
3.53
-1.48
-6.68
-12.01
-17.56
-23.48
-29.94
-37.15
-45.35
-54.68
-65.04
-75.78
-85.56
-92.50
-94.69
-90.81
-80.78
-65.74
-47.77
-29.06
-11.38
4.39
18.05
29.76
39.68
47.75
53.72
57.38
58.69
57.87
55.37
51.76
47.52
42.98
38.23
33.19
27.60
21.27
14.11
6.12
-2.59
-11.96
-21.99
-32.67
-43.95
-55.68
-67.68
-79.80
-92.06
-104.52
-117.15
-129.47
-140.43
-148.43
-151.71
-148.85
-139.21
-123.07
-101.51
-75.97
-47.90
-18.61
10.71
38.69
63.73
84.19
98.82
107.16
109.80
108.18
104.19
99.59
95.77
93.50
93.03
94.02
95.58
96.29
94.51
88.74
78.37
63.98
47.23
30.36
15.36
3.34
-5.59
-12.15
-17.52
-22.83
-28.91
-36.09
-44.12
-52.11
-58.64
-62.04
-60.67
-53.39
-39.77
-20.25
3.87
30.62
57.61
82.38
102.94
118.05
127.33
131.28
131.12
128.59
125.65
123.92
124.00
124.94
124.37
119.43
108.20
90.85
69.86
48.96
31.38
18.40
9.00
0.74
-8.60
-19.78
-31.80
-42.66
-50.54
-54.83
-56.29
-56.66
-57.70
-60.34
-64.23
-67.89
-69.28
-66.65
-59.36
-48.24
-35.29
-22.98
-13.11
-6.08
-0.82
4.51
11.58
21.07
32.44
44.29
54.92
62.82
66.87
66.29
60.74
50.48
36.49
20.39
3.99
-11.31
-25.07
-37.80
-50.48
-63.80
-77.77
-91.69
-104.65
-116.07
-125.98
-135.09
-144.34
-154.35
-164.94
-174.89
-182.21
-184.70
-180.89
-170.54
-154.76
-135.47
-114.57
-93.19
-71.63
-49.65
-27.26
-5.23
14.93
31.63
43.90
51.79
56.36
59.06
61.21
63.57
66.21
68.67
70.19
70.00
67.60
62.96
56.55
49.22
41.81
34.82
28.23
21.68
14.65
6.74
-2.23
-12.30
-23.47
-35.50
-47.72
-58.74
-66.58
-69.22
-65.41
-55.25
-40.27
-22.92
-5.59
10.13
23.75
35.54
46.02
55.33
63.10
68.60
71.22
70.84
68.09
64.16
60.40
57.81
56.69
56.52
56.34
55.19
52.63
48.79
44.24
39.50
34.78
29.87
24.35
17.97
10.83
3.37
-3.79
-9.96
-14.40
-16.30
-14.76
-8.99
1.56
16.88
36.45
59.33
84.37
110.48
136.82
162.90
188.51
213.52
237.48
259.27
276.98
288.19
290.69
283.27
266.11
240.65
208.89
172.75
133.92
94.21
55.94
21.98
-4.67
-21.65
-28.00
-24.38
-13.20
1.80
16.12
25.28
25.71
15.62
-4.87
-34.23
-70.53
-112.07
-157.07
-202.77
-244.56
-276.34
-292.22
-289.04
-267.84
-233.62
-193.20
-152.61
-115.53
-83.34
-56.40
-35.35
-21.36
-15.35
-16.80
-23.41
-31.83
-39.14
-44.09
-47.31
-50.70
-56.12
-64.44
-75.22
-87.18
-98.91
-109.51
-118.80
-127.13
-135.09
-143.14
-151.41
-159.64
-167.26
-173.39
-176.98
-176.93
-172.26
-162.46
-147.71
-128.94
-107.71
-85.84
-64.97
-46.16
-29.77
-15.61
-3.33
7.15
15.44
20.75
22.36
20.09
14.69
7.62
0.62
-5.04
-8.90
-11.26
-12.73
-13.62
-13.70
-12.37
-9.22
-4.58
0.32
3.75
4.12
0.64
-6.41
-15.87
-26.18
-35.74
-43.18
-47.47
-47.84
-43.94
-35.89
-24.41
-10.74
3.70
17.64
30.35
41.59
51.45
59.96
66.86
71.69
74.01
73.75
71.38
67.81
63.99
60.58
57.75
55.18
52.28
48.55
43.75
37.97
31.58
25.03
18.67
12.59
6.67
0.50
-6.44
-14.68
-24.49
-35.65
-47.31
-57.95
-65.68
-68.74
-66.03
-57.54
-44.37
-28.38
-11.51
4.79
19.86
33.65
46.37
58.05
68.44
77.06
83.44
87.37
88.89
88.32
86.07
82.56
78.12
73.03
67.49
61.70
55.85
50.16
44.76
39.66
34.70
29.68
24.34
18.56
12.27
5.45
-2.05
-10.42
-19.74
-29.73
-39.55
-47.83
-53.00
-53.79
-49.64
-40.83
-28.29
-13.30
2.91
19.30
35.02
49.30
61.28
70.10
75.02
75.68
72.32
65.73
57.14
47.85
38.88
30.81
23.81
17.80
12.67
8.39
4.93
2.10
-0.54
-3.54
-7.34
-11.98
-17.10
-22.23
-27.10
-31.97
-37.52
-44.36
-52.51
-61.03
-68.26
-72.37
-72.08
-66.99
-57.55
-44.62
-28.98
-11.12
8.61
29.61
50.89
71.01
88.47
102.08
111.20
115.91
116.84
115.02
111.61
107.62
103.77
100.47
97.84
95.89
94.48
93.29
91.61
88.36
82.27
72.38
58.49
41.28
22.07
2.17
-17.69
-37.54
-57.85
-78.76
-99.57
-118.63
-134.05
-144.52
-149.99
-151.68
-151.31
-150.17
-148.60
-145.96
-141.48
-134.97
-127.37
-120.33
-115.42
-113.21
-112.93
-112.79
-110.66
-104.55
-92.80
-73.94
-46.90
-11.71
29.80
73.64
114.54
147.57
170.07
182.69
189.00
193.79
200.70
210.55
220.82
226.88
224.13
210.28
186.53
157.15
127.90
103.66
86.94
77.57
73.49
71.80
69.35
62.92
49.91
29.59
4.86
-17.48
-28.82
-22.73
1.19
36.32
71.88
98.30
111.86
115.87
117.87
124.66
138.60
157.04
175.00
188.68
197.56
203.92
210.35
217.49
223.15
223.21
214.03
194.37
166.23
134.10
103.04
76.63
55.77
38.66
22.08
2.99
-20.34
-48.04
-79.25
-112.79
-147.46
-181.69
-213.19
-239.05
-256.54
-264.27
-262.98
-255.43
-245.30
-235.70
-228.02
-221.89
-215.90
-208.80
-200.21
-190.79
-181.71
-174.09
-168.52
-165.07
-163.37
-162.85
-162.92
-163.08
-162.89
-162.01
-160.15
-157.05
-152.55
-146.59
-139.25
-130.75
-121.40
-111.37
-100.64
-88.95
-75.98
-61.74
-46.89
-32.77
-20.97
-12.70
-8.31
-7.14
-8.00
-9.84
-12.26
-15.49
-19.98
-25.83
-32.42
-38.62
-43.39
-46.30
-47.78
-48.88
-50.66
-53.65
-57.54
-61.30
-63.58
-63.34
-60.20
-54.68
-48.04
-41.72
-36.88
-33.82
-32.00
-30.19
-26.95
-21.11
-12.15
-0.28
13.59
28.19
42.25
54.94
66.05
76.03
85.54
94.90
103.55
109.83
111.25
105.28
90.35
66.59
36.20
3.11
-27.98
-52.82
-68.71
-74.90
-72.29
-62.65
-47.85
-29.33
-8.20
14.47
37.37
58.96
77.55
91.39
98.65
97.68
87.45
68.17
41.79
11.78
-17.82
-43.79
-64.72
-80.96
-93.52
-102.69
-107.27
-104.97
-93.82
-73.50
-45.89
-14.61
16.32
43.64
65.44
81.07
90.73
95.01
94.76
91.08
85.31
78.91
73.12
68.69
65.74
63.75
61.68
58.29
52.55
44.04
33.25
21.45
10.22
0.76
-6.53
-12.02
-16.44
-20.29
-23.49
-25.33
-24.70
-20.60
-12.39
-0.12
15.22
31.64
46.54
57.18
61.46
58.45
48.55
33.39
15.45
-2.28
-16.73
-25.20
-26.15
-19.78
-8.18
5.30
17.34
25.94
31.08
34.23
37.23
41.00
45.22
48.78
50.64
50.43
48.43
45.25
41.60
38.26
36.06
35.56
36.28
36.27
32.81
23.58
8.49
-9.66
-26.02
-35.73
-35.72
-25.55
-6.88
17.83
46.33
76.62
106.17
131.45
148.46
154.20
148.22
133.17
113.95
95.60
81.36
71.75
65.04
59.13
53.19
48.33
46.82
50.34
58.26
67.36
72.90
70.52
58.26
36.84
8.96
-21.84
-52.26
-79.59
-101.60
-116.44
-123.04
-121.53
-113.62
-102.05
-89.75
-78.74
-69.68
-62.03
-54.82
-47.23
-39.00
-30.30
-21.42
-12.62
-4.18
3.42
9.43
12.98
13.39
10.48
4.60
-3.36
-12.17
-20.47
-27.07
-31.20
-32.75
-32.47
-31.99
-33.57
-39.46
-51.04
-68.10
-88.57
-109.07
-125.95
-136.41
-139.35
-135.38
-126.40
-114.57
-101.68
-88.62
-75.48
-61.98
-47.80
-32.87
-17.45
-2.03
12.78
26.34
38.11
47.63
54.61
58.93
60.71
60.28
58.21
55.18
51.78
48.32
44.80
40.98
36.56
31.37
25.45
19.09
12.66
6.59
1.43
-2.18
-3.43
-1.48
4.29
14.04
27.32
43.16
60.37
77.78
94.33
108.91
120.14
126.35
126.02
118.44
104.35
86.09
67.03
50.56
38.92
32.72
31.05
32.29
34.99
38.36
42.37
47.26
53.11
59.54
65.75
70.80
73.97
74.90
73.55
69.98
64.19
56.02
45.30
32.11
17.09
1.51
-12.97
-24.86
-33.34
-38.65
-41.94
-44.69
-48.13
-52.83
-58.77
-65.64
-73.08
-80.80
-88.33
-94.85
-99.26
-100.59
-98.56
-93.97
-88.47
-84.08
-82.33
-83.76
-87.73
-92.67
-96.66
-97.89
-95.20
-88.19
-77.38
-64.08
-50.10
-37.38
-27.43
-20.91
-17.35
-15.20
-12.31
-6.62
3.28
17.62
35.52
55.21
74.49
91.23
103.55
110.12
110.31
104.26
92.98
78.11
61.61
45.21
30.05
16.44
4.00
-8.04
-20.42
-33.47
-47.00
-60.27
-72.17
-81.51
-87.31
-89.01
-86.67
-81.05
-73.55
-65.96
-59.93
-56.47
-55.58
-56.23
-56.76
-55.57
-51.61
-44.70
-35.44
-24.79
-13.70
-2.83
7.47
17.07
25.86
33.72
40.38
45.48
48.70
49.91
49.35
47.61
45.51
43.70
42.47
41.52
40.23
38.03
34.66
30.33
25.50
20.57
15.60
10.32
4.29
-2.81
-11.08
-20.35
-30.26
-40.20
-49.29
-56.41
-60.33
-60.10
-55.42
-46.78
-35.30
-22.34
-9.03
3.95
16.31
27.89
38.39
47.36
54.33
59.04
61.56
62.27
61.65
60.16
58.10
55.60
52.73
49.44
45.64
41.22
36.01
30.00
23.34
16.32
9.32
2.66
-3.65
-9.89
-16.52
-24.05
-32.71
-42.29
-52.09
-60.95
-67.47
-70.34
-68.74
-62.56
-52.49
-39.76
-25.75
-11.58
2.06
14.87
26.72
37.45
46.87
54.74
61.00
65.72
69.10
71.42
72.85
73.54
73.61
73.16
72.27
71.00
69.38
67.47
65.49
63.77
62.66
62.28
62.34
62.05
60.23
55.47
46.50
32.55
13.67
-9.25
-34.50
-60.10
-84.14
-105.17
-122.34
-135.32
-144.11
-148.83
-149.57
-146.27
-138.71
-126.70
-110.30
-90.14
-67.52
-44.34
-22.56
-3.76
11.22
22.22
29.52
33.55
34.84
34.09
32.24
30.28
28.94
28.42
28.24
27.67
26.08
23.27
19.50
15.13
10.41
5.26
-0.62
-7.53
-15.61
-24.62
-33.91
-42.48
-49.00
-52.23
-51.29
-45.99
-36.90
-25.21
-12.34
0.40
12.02
21.85
29.42
34.37
36.43
35.60
32.24
27.07
21.08
15.28
10.50
7.22
5.47
4.95
5.08
5.21
4.82
3.60
1.48
-1.50
-5.20
-9.57
-14.56
-20.22
-26.64
-33.93
-42.18
-51.33
-60.98
-70.28
-77.95
-82.51
-82.79
-78.23
-69.03
-56.14
-40.81
-24.33
-7.78
8.06
22.61
35.43
46.11
54.25
59.52
61.72
60.81
57.03
50.90
43.11
34.44
25.60
17.14
9.39
2.45
-3.67
-9.07
-13.83
-17.99
-21.56
-24.54
-26.92
-28.76
-30.13
-31.17
-32.16
-33.48
-35.69
-39.26
-44.34
-50.45
-56.45
-60.74
-61.75
-58.45
-50.70
-39.22
-25.28
-10.27
4.67
18.89
32.02
43.89
54.22
62.65
68.68
71.97
72.44
70.45
66.70
62.18
57.80
54.21
51.58
49.63
47.79
45.55
42.58
38.92
34.81
30.49
26.04
21.29
16.01
10.07
3.46
-3.78
-11.69
-20.36
-29.68
-39.09
-47.41
-53.06
-54.65
-51.54
-44.07
-33.42
-21.07
-8.14
4.84
17.86
31.03
44.17
56.71
67.82
76.84
83.45
87.88
90.75
92.85
94.86
97.18
99.85
102.56
104.68
105.34
103.51
98.20
88.65
74.55
56.18
34.31
10.04
-15.49
-41.28
-66.58
-90.85
-113.71
-134.71
-153.24
-168.48
-179.49
-185.45
-185.91
-181.05
-171.66
-159.08
-144.80
-130.13
-115.80
-101.93
-88.19
-74.11
-59.45
-44.29
-29.14
-14.69
-1.56
9.88
19.62
28.00
35.46
42.32
48.67
54.28
58.85
62.04
63.67
63.72
62.26
59.49
55.52
50.45
44.26
36.92
28.28
18.15
6.38
-7.00
-21.54
-36.20
-49.45
-59.57
-65.11
-65.36
-60.57
-51.82
-40.66
-28.59
-16.66
-5.33
5.27
15.13
24.06
31.71
37.66
41.63
43.62
43.94
43.09
41.63
40.05
38.65
37.53
36.64
35.79
34.81
33.57
32.03
30.21
28.15
25.78
22.94
19.43
15.08
9.88
3.90
-2.71
-9.86
-17.46
-25.30
-32.85
-39.17
-43.02
-43.24
-39.18
-30.96
-19.51
-6.24
7.44
20.50
32.39
42.94
52.08
59.70
65.55
69.40
71.18
71.07
69.52
67.08
64.26
61.33
58.25
54.80
50.69
45.70
39.79
32.96
25.27
16.77
7.51
-2.34
-12.44
-22.36
-31.74
-40.46
-48.79
-57.23
-66.38
-76.60
-87.73
-98.86
-108.39
-114.33
-114.82
-108.84
-96.56
-79.37
-59.35
-38.64
-18.75
-0.42
16.27
31.43
44.97
56.59
65.92
72.80
77.36
80.01
81.13
81.00
79.75
77.49
74.43
71.00
67.68
64.82
62.44
60.18
57.42
53.57
48.34
41.89
34.78
27.72
21.25
15.55
10.29
4.73
-1.91
-10.25
-20.24
-31.03
-40.85
-47.45
-48.63
-42.96
-30.28
-11.79
10.28
33.52
55.93
76.42
94.79
111.34
126.51
140.56
153.55
165.37
175.88
184.68
191.01
193.59
190.80
181.06
163.39
137.65
104.43
64.65
19.29
-30.52
-82.82
-134.39
-180.68
-216.67
-238.32
-243.89
-234.49
-213.62
-185.97
-156.20
-128.29
-105.36
-89.82
-83.07
-84.95
-93.22
-103.76
-111.58
-112.61
-105.15
-90.25
-70.91
-50.48
-31.17
-13.37
3.69
20.87
38.11
54.15
67.12
75.56
79.13
78.79
76.26
73.31
71.12
69.98
69.37
68.30
65.76
61.04
53.99
45.12
35.40
25.95
17.75
11.23
6.20
1.95
-2.49
-8.02
-15.04
-23.19
-31.23
-37.36
-39.74
-37.30
-30.17
-19.78
-8.31
2.10
10.05
15.21
18.10
19.66
20.72
21.61
22.27
22.31
21.31
19.05
15.57
11.24
6.68
2.57
-0.59
-2.70
-4.17
-5.74
-8.27
-12.43
-18.42
-25.92
-34.12
-41.90
-48.06
-51.61
-52.07
-49.88
-46.44
-44.05
-45.25
-51.89
-64.26
-80.61
-97.51
-110.91
-117.47
-115.53
-105.39
-88.69
-67.58
-44.01
-19.41
5.11
28.58
50.09
68.82
84.14
95.68
103.16
106.51
105.99
102.23
96.41
89.77
83.25
76.97
70.28
62.13
51.68
38.75
23.87
7.96
-7.98
-23.15
-36.92
-48.87
-58.86
-67.19
-74.71
-82.64
-92.13
-103.79
-117.25
-131.16
-143.52
-152.12
-154.97
-150.63
-138.57
-119.24
-94.19
-65.80
-36.76
-9.46
14.61
34.95
51.95
66.42
79.23
91.09
102.48
113.76
124.99
135.79
145.11
151.26
152.31
146.73
133.99
114.85
91.21
65.50
40.08
16.61
-4.02
-21.60
-36.30
-48.37
-58.18
-66.20
-73.15
-79.91
-87.22
-95.17
-102.90
-108.59
-109.92
-104.89
-92.57
-73.58
-50.02
-24.99
-1.98
15.72
25.58
26.27
17.99
2.61
-16.68
-36.10
-52.22
-62.82
-67.28
-66.37
-61.71
-55.16
-48.40
-42.72
-39.02
-37.78
-39.02
-42.30
-46.77
-51.40
-55.32
-57.98
-59.40
-60.11
-61.02
-63.16
-67.32
-73.73
-81.85
-90.41
-97.58
-101.44
-100.48
-93.92
-81.99
-65.78
-47.01
-27.48
-8.78
8.10
22.75
35.22
45.71
54.32
60.96
65.42
67.56
67.54
65.86
63.28
60.52
58.02
55.76
53.39
50.45
46.67
42.09
37.09
32.09
27.37
22.82
18.03
12.44
5.50
-3.14
-13.63
-25.78
-39.04
-52.38
-64.20
-72.62
-75.93
-73.09
-64.10
-49.99
-32.50
-13.40
5.94
24.64
42.32
58.59
72.93
84.64
93.01
97.66
98.73
96.88
93.12
88.45
83.59
78.89
74.26
69.46
64.20
58.41
52.22
45.84
39.42
32.86
25.78
17.66
8.01
-3.41
-16.46
-30.51
-44.42
-56.67
-65.63
-69.90
-68.74
-62.28
-51.35
-37.21
-21.09
-3.90
13.73
31.22
47.90
62.91
75.34
84.46
89.93
91.86
90.77
87.45
82.84
77.81
72.99
68.66
64.69
60.71
56.25
51.05
45.11
38.65
31.98
25.26
18.41
11.15
3.07
-6.16
-16.70
-28.39
-40.75
-52.88
-63.50
-71.14
-74.45
-72.57
-65.43
-53.82
-39.11
-22.86
-6.45
9.18
23.53
36.26
47.10
55.72
61.77
65.00
65.43
63.39
59.60
54.99
50.46
46.62
43.57
40.95
38.11
34.43
29.62
23.73
17.06
9.98
2.76
-4.38
-11.32
-18.05
-24.72
-31.71
-39.55
-48.64
-58.86
-69.29
-78.21
-83.52
-83.36
-76.83
-64.31
-47.37
-28.23
-9.17
8.15
22.88
34.92
44.64
52.39
58.40
62.67
65.26
66.45
66.75
66.79
67.08
67.74
68.57
69.15
69.01
67.92
65.87
63.10
59.92
56.64
53.39
50.14
46.79
43.21
39.33
35.13
30.45
24.94
18.22
10.10
1.01
-7.70
-14.00
-15.77
-11.65
-1.63
12.90
29.76
46.73
62.18
75.27
85.59
92.82
96.38
95.55
89.75
78.79
63.03
43.25
20.61
-3.52
-27.64
-50.41
-70.89
-88.84
-104.61
-118.88
-132.16
-144.43
-155.11
-163.30
-168.27
-169.68
-167.71
-162.91
-155.98
-147.69
-138.86
-130.26
-122.47
-115.64
-109.28
-102.32
-93.37
-81.28
-65.55
-46.57
-25.50
-3.83
17.11
36.44
53.82
69.23
82.63
93.87
102.59
108.44
111.32
111.47
109.36
105.56
100.53
94.63
88.12
81.32
74.58
68.27
62.57
57.42
52.42
47.09
40.96
33.87
25.96
17.62
9.34
1.50
-5.77
-12.63
-19.50
-26.92
-35.22
-44.35
-53.58
-61.59
-66.72
-67.54
-63.35
-54.48
-42.22
-28.42
-14.81
-2.61
7.73
16.31
23.45
29.39
34.13
37.50
39.36
39.75
38.96
37.49
35.82
34.32
33.07
31.90
30.60
29.02
27.15
25.03
22.62
19.79
16.32
12.14
7.36
2.23
-3.03
-8.45
-14.25
-20.72
-27.96
-35.88
-44.21
-52.53
-60.39
-67.14
-71.90
-73.68
-71.64
-65.55
-55.95
-44.07
-31.33
-19.02
-7.91
1.70
9.91
16.86
22.72
27.49
31.07
33.28
33.96
33.19
31.31
28.89
26.53
24.61
23.19
22.06
20.90
19.49
17.64
15.24
12.10
8.03
3.04
-2.59
-8.37
-13.84
-18.88
-23.80
-29.23
-35.77
-43.58
-52.30
-61.10
-68.84
-74.33
-76.50
-74.58
-68.44
-58.59
-46.26
-32.97
-20.12
-8.59
1.40
10.10
17.82
24.70
30.61
35.32
38.68
40.70
41.52
41.34
40.31
38.53
36.19
33.55
30.99
28.83
27.28
26.25
25.37
24.07
21.73
17.93
12.64
6.21
-0.70
-7.42
-13.52
-18.98
-24.13
-29.48
-35.58
-42.82
-51.28
-60.58
-69.74
-77.35
-81.79
-81.80
-76.93
-67.66
-55.31
-41.50
-27.68
-14.71
-3.01
7.33
16.27
23.70
29.51
33.64
36.23
37.49
37.67
36.97
35.60
33.80
31.79
29.70
27.55
25.21
22.53
19.39
15.85
12.07
8.17
4.12
-0.29
-5.30
-11.00
-17.20
-23.52
-29.62
-35.50
-41.55
-48.28
-55.91
-63.91
-70.94
-75.20
-75.10
-69.87
-59.90
-46.57
-31.71
-17.06
-3.80
7.56
17.04
24.88
31.22
36.05
39.24
40.64
40.29
38.51
35.81
32.77
29.90
27.43
25.47
23.94
22.69
21.46
19.92
17.73
14.61
10.50
5.54
0.01
-5.85
-11.85
-17.91
-24.03
-30.28
-36.88
-44.14
-52.31
-61.25
-70.09
-77.29
-80.96
-79.63
-72.83
-61.34
-46.87
-31.43
-16.62
-3.28
8.48
18.94
28.32
36.56
43.32
48.22
51.05
52.01
51.67
50.70
49.59
48.51
47.28
45.66
43.55
41.04
38.39
35.77
33.09
29.98
26.08
21.16
15.32
8.89
2.32
-4.09
-10.25
-16.28
-22.54
-29.45
-37.39
-46.40
-55.99
-65.03
-71.93
-75.01
-73.16
-66.23
-55.09
-41.40
-26.96
-13.23
-0.97
9.75
19.21
27.71
35.36
41.97
47.16
50.64
52.34
52.47
51.46
49.74
47.59
45.12
42.42
39.61
36.98
34.76
32.94
31.17
28.80
25.25
20.30
14.22
7.68
1.37
-4.33
-9.49
-14.52
-19.90
-26.06
-33.19
-41.29
-50.06
-58.80
-66.43
-71.52
-72.72
-69.19
-60.94
-48.91
-34.70
-20.10
-6.53
5.18
14.84
22.63
28.79
33.35
36.20
37.24
36.66
35.02
33.19
31.88
31.33
31.21
30.91
29.90
28.08
25.84
23.68
21.86
20.10
17.78
14.22
9.14
2.80
-4.17
-11.00
-17.18
-22.62
-27.67
-33.10
-39.75
-48.08
-57.81
-67.79
-76.12
-80.82
-80.51
-74.90
-64.85
-51.95
-37.99
-24.35
-11.77
-0.41
9.87
19.21
27.54
34.59
39.99
43.50
45.19
45.49
44.99
44.16
43.21
42.05
40.45
38.30
35.75
33.17
30.91
29.09
27.47
25.50
22.57
18.26
12.51
5.66
-1.62
-8.60
-14.77
-20.03
-24.75
-29.62
-35.35
-42.36
-50.44
-58.76
-65.95
-70.49
-71.09
-67.10
-58.63
-46.54
-32.15
-16.83
-1.66
12.76
26.25
38.80
50.29
60.39
68.52
74.18
77.18
77.78
76.61
74.41
71.74
68.84
65.71
62.33
58.82
55.50
52.73
50.64
48.96
46.94
43.62
38.12
30.06
19.69
7.83
-4.50
-16.45
-27.62
-38.11
-48.30
-58.56
-69.03
-79.52
-89.60
-98.62
-105.66
-109.64
-109.48
-104.48
-94.69
-81.08
-65.27
-49.01
-33.62
-19.71
-7.34
3.64
13.19
21.02
26.81
30.48
32.38
33.18
33.55
33.99
34.58
35.21
35.66
35.79
35.54
34.87
33.71
31.94
29.46
26.24
22.24
17.46
12.01
6.08
-0.04
-6.11
-12.01
-17.94
-24.36
-31.83
-40.75
-51.01
-61.84
-71.86
-79.32
-82.55
-80.44
-72.75
-60.24
-44.50
-27.51
-11.07
3.68
16.28
26.84
35.57
42.61
47.95
51.62
53.79
54.86
55.31
55.47
55.46
55.23
54.69
53.81
52.68
51.39
49.93
48.18
45.89
42.79
38.66
33.35
26.72
18.67
9.18
-1.75
-13.97
-27.26
-41.40
-56.14
-71.19
-86.09
-99.98
-111.57
-119.32
-121.86
-118.45
-109.33
-95.80
-79.71
-62.90
-46.68
-31.51
-17.24
-3.45
10.02
22.87
34.41
43.95
51.07
55.89
58.97
60.98
62.46
63.54
64.07
63.76
62.51
60.51
58.17
55.94
54.03
52.28
50.19
47.12
42.56
36.35
28.79
20.53
12.20
4.16
-3.64
-11.66
-20.53
-30.79
-42.59
-55.60
-68.96
-81.37
-91.21
-96.99
-97.63
-92.88
-83.34
-70.26
-55.13
-39.27
-23.49
-8.22
6.34
19.91
32.00
42.00
49.34
53.73
55.37
54.83
52.96
50.56
48.21
46.08
44.02
41.74
39.09
36.21
33.41
31.05
29.21
27.67
25.93
23.47
20.02
15.57
10.42
4.92
-0.64
-6.02
-11.15
-15.99
-20.70
-25.61
-31.32
-38.41
-47.17
-57.23
-67.46
-76.05
-81.02
-80.81
-74.78
-63.39
-48.04
-30.55
-12.68
4.33
19.82
33.57
45.52
55.53
63.34
68.67
71.42
71.85
70.60
68.50
66.28
64.26
62.31
59.94
56.71
52.54
47.83
43.21
39.28
36.16
33.55
30.83
27.28
22.42
16.07
8.42
0.01
-8.43
-16.23
-23.10
-29.37
-35.87
-43.58
-53.16
-64.61
-77.22
-89.86
-101.17
-109.74
-114.23
-113.42
-106.62
-93.99
-76.79
-57.09
-37.10
-18.53
-2.19
11.99
24.43
35.47
45.10
53.04
59.01
62.87
64.74
64.96
63.94
62.11
59.85
57.41
54.95
52.48
49.99
47.44
44.77
41.83
38.31
33.82
28.07
21.04
13.08
4.81
-3.19
-10.60
-17.54
-24.59
-32.51
-41.95
-53.04
-65.14
-76.74
-85.76
-90.02
-87.96
-79.16
-64.55
-46.09
-26.16
-6.83
10.60
25.62
38.27
48.67
56.84
62.70
66.24
67.68
67.55
66.45
64.87
63.02
60.78
57.92
54.31
50.04
45.48
41.15
37.41
34.35
31.61
28.52
24.28
18.33
10.47
0.97
-9.48
-20.12
-30.42
-40.28
-50.11
-60.62
-72.41
-85.64
-99.79
-113.53
-125.00
-132.14
-133.23
-127.43
-115.03
-97.39
-76.53
-54.60
-33.23
-13.39
4.58
20.57
34.48
46.06
55.06
61.48
65.60
68.02
69.30
69.80
69.53
68.33
66.07
62.89
59.07
54.91
50.52
45.73
40.14
33.44
25.54
16.71
7.43
-1.88
-10.98
-19.84
-28.60
-37.39
-46.30
-55.48
-65.12
-75.33
-85.80
-95.60
-103.17
-106.69
-104.74
-96.86
-83.81
-67.24
-49.14
-31.23
-14.61
0.22
13.11
24.09
33.18
40.48
46.09
50.14
52.69
53.74
53.39
51.84
49.46
46.69
43.85
41.08
38.42
35.89
33.61
31.68
30.09
28.69
27.26
25.65
23.87
22.04
20.20
18.05
14.98
10.24
3.33
-5.65
-15.78
-25.50
-33.02
-36.83
-36.24
-31.47
-23.55
-13.79
-3.36
6.96
16.80
25.94
34.02
40.54
45.05
47.42
47.82
46.78
44.85
42.40
39.65
36.68
33.55
30.29
26.93
23.44
19.80
16.09
12.40
8.84
5.30
1.47
-3.00
-8.34
-14.47
-21.08
-27.92
-35.09
-42.91
-51.57
-60.73
-69.13
-74.90
-76.21
-72.00
-62.52
-49.25
-34.29
-19.65
-6.53
4.75
14.52
23.22
31.05
37.81
43.01
46.30
47.65
47.44
46.35
44.94
43.51
42.03
40.27
38.00
35.14
31.79
28.14
24.43
20.79
17.28
13.86
10.39
6.61
2.24
-3.01
-9.32
-16.70
-24.92
-33.41
-41.26
-47.23
-50.04
-48.59
-42.36
-31.65
-17.58
-1.83
13.86
28.08
40.05
49.57
56.84
62.12
65.51
66.89
65.95
62.51
56.69
49.05
40.50
31.97
24.16
17.28
11.16
5.37
-0.43
-6.33
-12.24
-18.04
-23.77
-29.66
-36.02
-42.92
-50.14
-57.16
-63.45
-68.60
-72.33
-74.28
-73.89
-70.37
-63.06
-51.80
-37.26
-20.76
-3.90
12.02
26.31
38.93
50.09
59.89
68.07
74.08
77.28
77.26
74.10
68.42
61.34
54.18
48.12
43.75
40.86
38.57
35.65
31.08
24.48
16.28
7.45
-0.86
-7.81
-13.09
-16.81
-19.37
-21.18
-22.64
-24.13
-26.00
-28.44
-31.26
-33.91
-35.55
-35.46
-33.36
-29.54
-24.72
-19.66
-14.81
-10.19
-5.47
-0.39
5.04
10.34
14.66
16.97
16.48
12.94
6.80
-0.87
-8.70
-15.56
-20.89
-24.77
-27.68
-30.08
-32.06
-33.36
-33.59
-32.64
-30.97
-29.51
-29.33
-31.18
-35.23
-41.06
-47.96
-55.32
-62.58
-69.18
-74.18
-76.32
-74.24
-67.21
-55.66
-41.25
-26.35
-13.11
-2.62
5.35
11.89
18.12
24.50
30.65
35.73
39.00
40.27
39.86
38.34
36.09
33.23
29.64
25.26
20.20
14.76
9.30
4.01
-1.13
-6.33
-11.90
-18.13
-25.15
-32.91
-41.22
-49.79
-58.38
-66.70
-74.37
-80.75
-84.96
-85.96
-82.97
-75.74
-64.70
-50.79
-35.10
-18.56
-1.80
14.80
30.87
46.10
60.13
72.70
83.60
92.61
99.45
103.91
106.07
106.50
106.22
106.43
108.04
111.17
115.13
118.85
121.53
123.35
125.40
129.07
134.80
141.26
145.16
142.13
128.04
100.20
58.09
3.61
-59.05
-123.60
-182.33
-227.21
-251.93
-253.90
-235.69
-204.67
-170.66
-142.59
-125.37
-118.81
-118.57
-118.82
-114.89
-105.01
-90.50
-74.87
-62.44
-56.80
-59.49
-69.06
-81.14
-89.63
-88.90
-76.21
-53.08
-24.84
1.70
21.18
31.72
34.94
34.30
32.88
31.91
30.92
28.83
25.07
19.95
14.06
7.46
-0.52
-10.88
-23.91
-38.43
-51.89
-61.12
-63.68
-58.85
-47.96
-33.73
-19.17
-6.54
3.35
11.02
17.84
25.21
33.92
43.77
53.76
62.36
68.30
70.94
70.53
68.10
64.90
61.95
59.72
58.06
56.41
54.08
50.48
45.27
38.43
30.17
20.93
11.30
1.82
-7.19
-15.71
-24.06
-32.73
-42.05
-52.06
-62.25
-71.61
-78.77
-82.37
-81.41
-75.60
-65.45
-52.10
-36.93
-21.14
-5.55
9.50
23.85
37.36
49.78
60.77
70.02
77.40
82.93
86.77
89.16
90.40
90.80
90.64
90.11
89.24
87.86
85.64
82.26
77.50
71.38
64.14
56.22
48.04
39.94
32.02
24.14
15.95
7.00
-3.09
-14.49
-26.84
-39.23
-50.27
-58.37
-62.22
-61.21
-55.67
-46.70
-35.74
-24.10
-12.60
-1.61
8.82
18.56
27.34
34.76
40.51
44.44
46.68
47.49
47.12
45.82
43.81
41.33
38.68
36.15
33.91
31.92
29.95
27.61
24.50
20.30
14.94
8.58
1.62
-5.42
-12.16
-18.43
-24.44
-30.72
-37.93
-46.55
-56.63
-67.49
-77.78
-85.69
-89.44
-87.90
-80.86
-69.20
-54.53
-38.62
-22.88
-8.07
5.64
18.39
30.28
41.21
50.89
59.04
65.52
70.35
73.66
75.60
76.32
75.95
74.74
73.05
71.25
69.63
68.28
66.98
65.35
62.97
59.54
54.99
49.50
43.42
37.17
31.04
25.09
19.08
12.55
4.96
-4.14
-14.86
-26.75
-38.79
-49.60
-57.70
-62.00
-62.06
-58.19
-51.31
-42.69
-33.67
-25.25
-17.97
-11.82
-6.47
-1.54
3.09
7.22
10.42
12.26
12.63
11.81
10.35
8.89
7.91
7.70
8.41
10.04
12.49
15.43
18.33
20.62
22.00
22.63
23.12
24.28
26.77
30.86
36.28
42.36
48.12
52.65
55.32
56.16
56.15
57.19
61.63
71.23
86.01
103.53
119.06
126.82
121.99
102.36
69.05
26.09
-20.81
-65.60
-102.91
-128.53
-139.84
-136.21
-119.47
-93.97
-65.87
-41.61
-26.38
-22.78
-30.56
-47.23
-69.19
-92.80
-115.21
-134.49
-149.40
-159.05
-162.73
-159.93
-150.71
-136.10
-118.14
-99.55
-83.03
-70.45
-62.49
-58.70
-57.99
-59.19
-61.38
-63.86
-66.02
-67.16
-66.62
-63.91
-58.76
-51.13
-41.21
-29.32
-16.00
-2.05
11.55
23.84
34.03
41.69
46.81
49.67
50.76
50.64
49.84
48.74
47.61
46.48
45.24
43.72
41.75
39.21
36.04
32.29
27.95
23.06
17.60
11.55
4.79
-2.87
-11.58
-21.35
-31.81
-42.11
-50.95
-56.83
-58.51
-55.38
-47.76
-36.81
-24.19
-11.55
-0.07
9.78
18.10
25.28
31.65
37.27
41.97
45.53
47.81
48.85
48.87
48.18
47.15
46.11
45.32
44.84
44.48
43.88
42.61
40.37
37.08
32.82
27.66
21.59
14.41
5.96
-3.75
-14.51
-25.92
-37.63
-49.39
-60.94
-71.78
-81.01
-87.46
-89.98
-87.95
-81.49
-71.46
-59.17
-45.91
-32.71
-20.19
-8.66
1.66
10.52
17.67
22.87
25.92
26.88
26.06
23.98
21.37
18.92
17.05
15.95
15.41
15.07
14.58
13.72
12.46
10.88
9.15
7.27
5.14
2.51
-0.90
-5.38
-11.11
-18.14
-26.41
-35.65
-45.35
-54.71
-62.54
-67.40
-67.97
-63.44
-53.94
-40.56
-25.11
-9.52
4.70
16.86
26.98
35.54
42.97
49.47
54.92
59.01
61.46
62.14
61.14
58.81
55.66
52.22
48.99
46.18
43.69
41.20
38.28
34.66
30.25
25.11
19.38
13.15
6.43
-0.76
-8.39
-16.37
-24.70
-33.47
-42.81
-52.62
-62.28
-70.63
-76.08
-77.11
-72.80
-63.18
-49.23
-32.51
-14.66
3.03
19.77
35.21
49.10
61.07
70.57
77.08
80.34
80.64
78.79
75.89
72.95
70.51
68.59
66.80
64.62
61.67
57.77
52.86
46.82
39.48
30.68
20.53
9.49
-1.69
-12.19
-21.41
-29.18
-35.80
-41.87
-48.16
-55.36
-63.76
-73.09
-82.36
-90.02
-94.30
-93.79
-87.86
-76.85
-61.99
-44.93
-27.36
-10.60
4.48
17.53
28.49
37.42
44.36
49.26
52.10
53.11
52.91
52.43
52.62
53.93
56.10
58.13
58.67
56.57
51.31
43.15
33.01
22.12
11.69
2.66
-4.46
-9.69
-13.53
-16.87
-20.88
-26.59
-34.80
-45.79
-59.12
-73.56
-87.14
-97.55
-102.71
-101.50
-94.14
-82.15
-67.69
-52.73
-38.41
-24.80
-11.34
2.59
17.12
31.63
45.06
56.29
64.58
69.71
71.94
71.86
70.19
67.62
64.77
62.00
59.38
56.68
53.43
49.19
43.76
37.36
30.57
24.16
18.78
14.67
11.57
8.79
5.51
1.09
-4.60
-11.06
-17.08
-20.97
-21.06
-16.20
-6.27
7.78
24.28
41.54
58.50
75.02
91.58
108.65
126.00
142.48
156.24
165.35
168.30
164.39
153.72
137.07
115.85
91.93
67.21
43.06
19.84
-3.23
-27.57
-54.41
-83.86
-114.68
-144.58
-170.97
-191.79
-205.98
-213.52
-215.23
-212.52
-207.17
-201.09
-196.01
-193.01
-192.11
-192.13
-190.90
-185.91
-175.10
-157.51
-133.72
-105.70
-76.27
-48.26
-23.76
-3.73
12.04
24.41
34.23
42.02
47.73
51.09
51.97
50.70
48.11
45.29
43.12
41.97
41.60
41.31
40.36
38.31
35.16
31.27
27.12
23.00
18.91
14.50
9.42
3.32
-3.99
-12.52
-22.06
-32.18
-42.10
-50.58
-56.15
-57.36
-53.27
-43.85
-30.07
-13.65
3.50
19.80
34.36
46.92
57.55
66.28
72.95
77.24
79.00
78.41
76.09
72.89
69.56
66.55
63.92
61.44
58.80
55.75
52.12
47.78
42.65
36.69
29.96
22.74
15.35
8.10
1.04
-6.05
-13.70
-22.47
-32.69
-44.19
-56.04
-66.70
-74.31
-77.18
-74.38
-66.01
-53.17
-37.60
-21.08
-4.98
9.95
23.56
35.97
47.31
57.51
66.32
73.38
78.32
80.91
81.10
79.15
75.59
71.13
66.49
62.16
58.27
54.56
50.55
45.81
40.12
33.54
26.30
18.67
10.84
2.92
-5.06
-13.07
-21.20
-29.63
-38.66
-48.48
-58.89
-68.94
-77.04
-81.24
-79.96
-72.59
-59.84
-43.54
-25.99
-9.21
5.58
18.05
28.47
37.31
44.77
50.72
54.83
56.81
56.60
54.51
51.14
47.17
43.27
39.82
36.88
34.26
31.63
28.72
25.37
21.55
17.22
12.35
6.84
0.68
-6.05
-13.18
-20.55
-28.13
-36.06
-44.37
-52.75
-60.36
-65.85
-67.82
-65.29
-58.11
-47.02
-33.40
-18.74
-4.28
9.23
21.48
32.30
41.56
48.99
54.28
57.28
58.09
57.13
55.05
52.55
50.25
48.47
47.24
46.26
45.09
43.29
40.57
36.82
32.21
27.02
21.58
16.10
10.60
4.96
-1.04
-7.58
-14.88
-23.03
-32.05
-41.62
-50.93
-58.65
-63.20
-63.20
-58.03
-48.12
-34.75
-19.69
-4.57
9.51
22.10
33.11
42.53
50.29
56.18
60.09
62.07
62.38
61.42
59.58
57.16
54.34
51.21
47.83
44.25
40.44
36.32
31.71
26.43
20.33
13.45
5.99
-1.67
-9.05
-15.74
-21.55
-26.57
-31.25
-36.20
-42.14
-49.51
-58.37
-68.20
-77.93
-86.13
-91.35
-92.44
-88.82
-80.74
-69.10
-55.28
-40.73
-26.58
-13.47
-1.54
9.28
19.03
27.49
34.26
38.91
41.28
41.54
40.19
37.88
35.21
32.59
30.24
28.23
26.52
24.89
23.07
20.74
17.69
13.94
9.66
5.14
0.59
-3.95
-8.57
-13.48
-18.91
-25.11
-32.24
-40.28
-48.85
-57.08
-63.70
-67.32
-66.88
-61.99
-53.13
-41.43
-28.40
-15.45
-3.59
6.66
15.20
22.27
28.16
33.12
37.23
40.41
42.57
43.68
43.96
43.85
43.99
45.15
48.02
52.93
59.54
66.60
72.01
73.33
68.51
56.67
38.44
15.77
-8.68
-32.34
-53.43
-71.07
-85.28
-96.60
-105.84
-113.75
-120.73
-126.60
-130.44
-130.86
-126.49
-116.61
-101.57
-82.82
-62.42
-42.39
-24.14
-8.18
5.67
17.99
29.22
39.37
47.99
54.29
57.47
57.05
53.10
46.25
37.57
28.20
19.13
11.04
4.32
-0.79
-4.20
-6.00
-6.62
-6.78
-7.36
-9.10
-12.35
-16.94
-22.31
-27.74
-32.65
-36.89
-40.74
-44.83
-49.83
-56.10
-63.37
-70.70
-76.57
-79.49
-78.46
-73.37
-64.96
-54.37
-42.67
-30.57
-18.41
-6.41
5.09
15.61
24.67
31.95
37.38
41.02
42.97
43.37
42.43
40.57
38.33
36.22
34.45
32.87
31.03
28.44
24.88
20.47
15.73
11.32
7.78
5.32
3.73
2.41
0.63
-2.32
-6.89
-13.22
-21.09
-30.08
-39.51
-48.45
-55.73
-60.07
-60.42
-56.27
-47.96
-36.61
-23.81
-11.04
0.66
10.86
19.58
26.99
33.15
37.95
41.24
42.93
43.14
42.14
40.29
37.96
35.46
33.02
30.79
28.75
26.70
24.39
21.57
18.08
13.88
9.00
3.58
-2.19
-8.07
-13.78
-19.20
-24.53
-30.27
-37.10
-45.54
-55.54
-66.32
-76.50
-84.40
-88.48
-87.72
-81.90
-71.65
-58.25
-43.30
-28.28
-14.08
-0.95
11.27
22.66
32.87
41.10
46.51
48.72
48.18
45.97
43.28
40.86
38.80
36.76
34.37
31.55
28.49
25.41
22.30
18.96
15.26
11.35
7.77
5.10
3.57
2.88
2.25
0.72
-2.44
-7.56
-14.64
-23.42
-33.40
-43.75
-53.35
-60.82
-64.87
-64.68
-60.12
-51.73
-40.47
-27.42
-13.51
0.47
13.87
26.10
36.66
45.19
51.53
55.72
57.95
58.51
57.73
55.96
53.51
50.65
47.55
44.34
41.08
37.83
34.54
31.19
27.71
24.02
20.07
15.84
11.27
6.37
1.14
-4.41
-10.29
-16.58
-23.51
-31.28
-39.93
-49.09
-57.82
-64.78
-68.62
-68.29
-63.45
-54.54
-42.58
-28.89
-14.86
-1.57
10.20
20.12
28.20
34.65
39.66
43.38
45.82
46.95
46.88
45.85
44.21
42.24
40.09
37.68
34.89
31.61
27.87
23.81
19.55
15.17
10.59
5.72
0.53
-4.95
-10.67
-16.60
-22.85
-29.65
-37.16
-45.28
-53.51
-60.83
-65.98
-67.78
-65.47
-59.02
-49.12
-36.99
-23.97
-11.15
0.84
11.84
21.90
31.07
39.26
46.16
51.47
54.96
56.56
56.42
54.86
52.36
49.45
46.68
44.50
43.02
42.05
41.05
39.46
36.83
33.06
28.37
23.08
17.43
11.48
5.13
-1.73
-9.13
-17.01
-25.30
-33.90
-42.65
-51.13
-58.58
-63.92
-66.08
-64.35
-58.73
-49.92
-39.06
-27.27
-15.36
-3.65
7.80
18.93
29.51
39.05
46.99
52.89
56.57
58.04
57.54
55.38
51.97
47.89
43.75
40.19
37.61
36.00
34.93
33.69
31.58
28.23
23.71
18.40
12.77
7.18
1.72
-3.65
-9.05
-14.61
-20.52
-26.92
-33.87
-41.06
-47.70
-52.56
-54.33
-52.07
-45.59
-35.49
-22.94
-9.17
4.84
18.52
31.67
44.17
55.84
66.27
74.94
81.31
85.11
86.45
85.91
84.33
82.53
81.00
79.73
78.36
76.48
73.85
70.46
66.27
60.99
53.95
44.55
32.61
18.64
3.83
-10.45
-23.19
-34.13
-43.73
-52.94
-62.69
-73.40
-84.82
-95.93
-105.18
-110.89
-111.73
-107.11
-97.39
-83.76
-67.85
-51.34
-35.59
-21.55
-9.71
-0.18
7.29
13.20
18.09
22.43
26.42
30.15
33.54
36.51
38.97
40.72
41.53
41.29
40.14
38.49
36.92
35.78
34.97
33.93
31.93
28.46
23.46
17.32
10.52
3.38
-4.18
-12.52
-22.00
-32.82
-44.87
-57.68
-70.46
-82.09
-91.24
-96.62
-97.24
-92.86
-84.16
-72.61
-60.19
-48.86
-40.07
-34.53
-32.16
-32.26
-33.82
-35.87
-37.68
-38.92
-39.63
-39.94
-39.97
-39.68
-38.97
-37.70
-35.79
-33.07
-29.32
-24.40
-18.28
-11.30
-4.12
2.44
7.72
11.48
13.82
15.13
15.74
15.95
15.87
15.57
14.99
13.92
11.98
8.67
3.66
-3.09
-11.20
-19.87
-28.02
-34.35
-37.61
-36.85
-31.77
-22.89
-11.53
0.59
11.93
21.65
29.72
36.55
42.57
47.82
51.91
54.34
54.92
53.86
51.81
49.45
47.15
44.98
42.75
40.29
37.58
34.80
32.15
29.72
27.50
25.30
22.92
20.11
16.62
12.30
7.15
1.41
-4.55
-10.36
-15.84
-21.07
-26.35
-31.95
-38.03
-44.43
-50.63
-55.77
-58.81
-58.79
-55.15
-47.98
-38.03
-26.49
-14.55
-3.06
7.61
17.39
26.23
33.87
39.91
44.01
46.14
46.68
46.23
45.36
44.41
43.42
42.28
40.84
39.08
37.10
35.16
33.44
32.01
30.77
29.47
27.75
25.25
21.70
16.95
11.08
4.38
-2.74
-9.80
-16.47
-22.54
-28.01
-32.80
-36.73
-39.24
-39.55
-36.82
-30.54
-20.74
-8.08
6.30
21.14
35.33
48.04
58.61
66.37
70.59
70.67
66.58
59.19
50.15
41.48
34.85
31.10
30.16
31.36
33.80
36.56
38.78
39.59
38.36
34.92
29.71
23.64
17.70
12.40
7.76
3.42
-0.88
-5.08
-8.89
-12.23
-15.51
-19.74
-26.04
-35.04
-46.41
-58.88
-70.55
-79.46
-84.11
-83.71
-78.30
-68.58
-55.67
-40.84
-25.27
-9.89
4.67
17.94
29.62
39.44
47.21
52.88
56.61
58.72
59.70
59.87
59.47
58.63
57.65
57.04
57.45
59.43
63.04
67.83
73.01
78.01
82.84
87.92
93.45
98.59
101.14
97.85
85.59
62.36
27.92
-16.31
-67.55
-121.95
-174.74
-220.52
-254.12
-271.88
-272.91
-259.65
-237.12
-211.21
-186.76
-166.47
-150.84
-139.00
-129.68
-121.81
-114.62
-107.44
-99.58
-90.45
-79.80
-67.87
-55.31
-43.01
-31.86
-22.51
-15.20
-9.76
-5.61
-2.00
1.78
6.06
10.70
15.08
18.42
20.23
20.60
20.18
19.85
20.36
21.83
23.89
25.86
27.09
27.18
25.97
23.51
20.07
16.32
13.25
12.12
13.94
18.95
26.36
34.51
41.48
45.76
46.61
43.91
37.94
29.10
17.75
4.42
-10.21
-25.28
-39.95
-53.63
-66.01
-76.84
-85.78
-92.27
-95.59
-95.10
-90.64
-82.69
-72.28
-60.75
-49.30
-38.70
-29.32
-21.24
-14.59
-9.76
-7.26
-7.28
-9.38
-12.34
-14.61
-14.94
-12.82
-8.64
-3.26
2.60
8.78
15.70
23.99
34.03
45.62
58.04
70.21
80.91
89.15
94.27
96.11
95.02
91.80
87.36
82.49
77.66
73.00
68.50
64.16
60.04
56.14
52.27
48.01
42.94
36.83
29.89
22.81
16.27
10.69
5.85
0.99
-4.90
-12.50
-21.90
-32.36
-42.57
-51.04
-56.53
-58.32
-56.37
-51.16
-43.35
-33.63
-22.49
-10.24
3.04
17.30
32.40
47.72
62.07
73.83
81.39
83.78
81.20
75.02
67.39
60.47
55.62
53.05
52.04
51.49
50.39
48.14
44.57
39.76
33.93
27.41
20.53
13.58
6.67
-0.22
-7.25
-14.61
-22.57
-31.33
-40.97
-51.21
-61.19
-69.53
-74.53
-74.79
-69.72
-59.83
-46.59
-31.87
-17.33
-3.99
7.78
18.13
27.38
35.70
43.04
49.16
53.73
56.53
57.60
57.25
55.98
54.28
52.43
50.42
48.01
44.83
40.70
35.71
30.14
24.27
18.18
11.72
4.61
-3.30
-11.90
-20.85
-29.81
-38.59
-47.06
-55.06
-62.13
-67.49
-70.17
-69.39
-64.93
-57.22
-47.17
-35.88
-24.27
-12.91
-2.11
7.97
17.26
25.55
32.55
37.94
41.50
43.21
43.33
42.33
40.74
38.82
36.58
33.83
30.37
26.16
21.48
16.76
12.40
8.53
4.99
1.39
-2.65
-7.46
-13.26
-20.18
-28.23
-37.18
-46.41
-54.86
-61.17
-64.05
-62.65
-56.90
-47.43
-35.37
-21.99
-8.37
4.77
16.99
27.99
37.55
45.46
51.54
55.75
58.14
58.88
58.18
56.20
53.15
49.23
44.77
40.19
35.88
32.09
28.86
25.99
23.15
20.02
16.36
12.07
7.13
1.59
-4.51
-11.08
-18.11
-25.66
-33.83
-42.74
-52.29
-62.01
-70.87
-77.41
-80.22
-78.34
-71.62
-60.79
-47.16
-32.13
-16.92
-2.28
11.27
23.33
33.44
41.15
46.19
48.58
48.68
47.16
44.77
42.17
39.79
37.79
36.12
34.58
32.96
30.99
28.48
25.25
21.23
16.54
11.42
6.12
0.77
-4.76
-10.83
-17.83
-26.02
-35.32
-45.32
-55.39
-64.75
-72.51
-77.72
-79.38
-76.77
-69.73
-58.91
-45.60
-31.23
-16.93
-3.28
9.64
21.76
32.78
42.08
49.00
53.16
54.71
54.22
52.43
49.98
47.21
44.28
41.30
38.44
35.88
33.70
31.73
29.64
26.99
23.37
18.60
12.71
6.00
-1.10
-8.19
-15.03
-21.62
-28.26
-35.40
-43.44
-52.45
-62.06
-71.32
-78.95
-83.61
-84.25
-80.38
-72.17
-60.31
-45.90
-30.12
-14.09
1.30
15.41
27.79
38.18
46.42
52.45
56.40
58.57
59.49
59.68
59.43
58.72
57.25
54.76
51.21
46.97
42.66
38.90
35.92
33.41
30.80
27.42
22.90
17.23
10.77
3.97
-2.82
-9.44
-15.94
-22.51
-29.53
-37.34
-46.15
-55.82
-65.68
-74.57
-81.07
-83.82
-81.93
-75.31
-64.58
-50.87
-35.49
-19.59
-4.01
10.69
24.05
35.62
44.90
51.54
55.44
56.92
56.63
55.33
53.63
51.81
49.84
47.53
44.86
42.06
39.56
37.76
36.68
35.88
34.58
32.00
27.62
21.50
14.22
6.60
-0.58
-6.87
-12.21
-16.90
-21.44
-26.41
-32.31
-39.54
-48.10
-57.47
-66.44
-73.37
-76.53
-74.65
-67.35
-55.23
-39.67
-22.40
-5.04
11.17
25.41
37.20
46.35
52.92
57.10
59.23
59.75
59.15
57.89
56.38
54.87
53.45
52.08
50.65
49.23
48.04
47.39
47.29
47.36
46.66
44.01
38.55
30.22
19.89
9.11
-0.65
-8.68
-15.46
-22.36
-30.83
-41.45
-53.27
-63.93
-70.36
-69.86
-61.04
-44.28
-21.78
2.73
24.43
38.37
40.71
30.03
8.28
-19.52
-46.78
-67.54
-78.51
-79.66
-73.48
-63.16
-51.08
-38.11
-24.06
-8.65
7.75
23.91
38.12
48.82
55.04
56.43
53.10
45.36
33.49
17.71
-1.68
-24.02
-48.02
-71.59
-92.15
-107.35
-115.88
-117.95
-115.05
-109.20
-101.95
-93.95
-85.02
-74.69
-62.78
-49.60
-35.72
-21.54
-7.21
7.15
20.98
33.09
41.94
46.25
45.68
40.90
33.28
24.33
15.33
7.27
0.85
-3.41
-5.38
-5.46
-4.67
-4.25
-5.27
-8.09
-12.42
-17.63
-23.32
-29.67
-37.24
-46.53
-57.50
-69.41
-81.02
-91.15
-99.02
-104.37
-107.21
-107.53
-105.01
-98.99
-88.88
-74.54
-56.61
-36.47
-16.02
2.69
17.94
28.49
33.73
33.73
29.45
22.90
17.08
15.32
20.07
31.62
47.53
63.43
74.87
79.38
77.55
72.39
67.45
64.62
63.15
60.31
53.32
41.17
25.50
9.98
-1.31
-5.41
-1.39
9.33
23.13
34.50
37.26
26.47
0.93
-35.05
-71.86
-97.53
-102.15
-81.88
-40.44
12.98
67.85
116.28
154.77
183.17
202.23
211.92
211.43
200.66
181.91
159.84
139.91
126.01
118.84
115.93
113.15
107.19
97.13
84.79
73.37
65.64
62.50
62.39
62.16
58.46
49.13
33.90
14.30
-7.16
-27.68
-44.61
-55.57
-58.57
-52.57
-38.30
-18.70
1.63
17.86
26.84
28.32
24.76
19.87
16.62
15.90
16.41
15.85
12.42
5.81
-2.99
-12.47
-21.43
-29.40
-36.45
-42.67
-48.05
-52.49
-56.08
-59.25
-62.65
-66.95
-72.54
-79.40
-87.21
-95.46
-103.67
-111.37
-118.19
-123.86
-128.18
-130.99
-132.08
-131.15
-127.89
-122.14
-113.91
-103.35
-90.65
-76.06
-59.85
-42.43
-24.48
-6.92
9.25
23.09
33.93
41.58
46.26
48.67
49.71
50.30
51.14
52.64
54.93
57.95
61.63
65.90
70.68
75.78
80.91
85.67
89.74
92.83
94.69
94.99
93.39
89.83
84.84
79.71
76.21
75.82
79.01
84.89
91.49
96.42
97.61
93.60
83.60
67.43
45.71
20.00
-7.12
-32.55
-53.48
-68.29
-77.00
-81.13
-82.95
-84.59
-87.30
-91.11
-95.01
-97.60
-97.77
-95.38
-91.49
-87.96
-86.61
-88.22
-91.99
-95.65
-96.46
-92.29
-82.56
-68.30
-51.62
-34.82
-19.50
-6.23
5.38
15.86
25.25
32.57
35.97
33.51
24.17
8.49
-11.34
-32.06
-50.32
-63.50
-70.27
-70.80
-66.56
-59.99
-53.96
-50.99
-52.34
-57.45
-64.22
-70.23
-74.05
-76.01
-77.96
-81.95
-88.82
-97.26
-104.01
-104.88
-96.10
-75.42
-42.68
0.20
49.40
99.62
144.93
179.76
200.26
205.17
196.15
176.96
152.38
126.86
103.39
83.16
65.81
50.18
34.91
18.92
1.60
-16.86
-35.17
-50.75
-60.02
-59.77
-48.92
-29.89
-8.46
8.21
14.55
9.11
-4.88
-21.19
-33.80
-39.48
-38.67
-34.43
-30.24
-28.21
-28.57
-30.34
-32.40
-34.57
-37.54
-42.16
-48.85
-57.10
-65.58
-72.66
-76.96
-77.67
-74.65
-68.27
-59.18
-48.12
-35.64
-22.03
-7.37
8.32
24.84
41.60
57.55
71.51
82.41
89.67
93.32
93.85
92.00
88.55
84.13
79.30
74.55
70.32
67.01
64.94
64.28
65.01
66.88
69.34
71.69
73.15
73.07
70.96
66.49
59.38
49.35
36.31
20.62
3.37
-13.68
-28.43
-39.20
-45.37
-47.66
-47.80
-47.77
-48.87
-51.12
-53.21
-53.10
-48.85
-39.57
-25.71
-8.91
8.62
24.90
38.74
49.91
58.88
66.29
72.46
77.27
80.29
81.19
80.11
77.77
75.28
73.80
74.37
77.68
84.05
93.12
103.50
112.49
116.21
110.60
92.87
62.87
23.54
-19.76
-61.01
-95.29
-119.84
-134.13
-139.13
-136.41
-127.63
-114.43
-98.46
-81.38
-64.51
-48.59
-33.77
-19.76
-6.42
5.83
15.71
21.15
19.83
10.07
-8.17
-32.76
-59.60
-83.76
-101.23
-110.43
-112.70
-111.51
-110.79
-113.09
-118.66
-125.65
-131.30
-133.21
-130.33
-123.07
-112.96
-102.01
-92.18
-85.15
-82.05
-83.33
-88.64
-96.70
-105.54
-112.87
-116.76
-116.14
-111.05
-102.60
-92.52
-82.65
-74.30
-67.79
-62.10
-55.10
-44.19
-27.39
-4.18
24.19
55.15
85.76
113.52
136.77
154.56
166.35
172.03
172.14
168.14
162.43
157.68
155.95
158.21
164.45
174.11
186.30
199.62
211.93
220.60
223.56
220.69
214.37
208.69
207.31
211.34
218.31
223.25
221.10
209.06
187.56
159.40
127.75
94.40
59.37
21.71
-19.11
-62.23
-105.21
-144.67
-177.17
-200.29
-213.10
-216.54
-213.16
-206.47
-200.05
-196.50
-196.76
-200.12
-204.86
-209.26
-212.27
-213.79
-214.32
-214.52
-214.87
-215.71
-217.36
-220.10
-223.80
-227.59
-229.81
-228.37
-221.59
-208.94
-191.30
-170.59
-149.06
-128.43
-109.39
-91.58
-73.94
-55.19
-34.45
-11.62
12.34
35.52
55.66
70.98
80.86
86.29
89.53
93.40
100.38
111.81
127.38
145.01
161.41
172.93
176.96
172.98
162.91
150.37
139.17
131.85
128.79
128.43
128.45
127.12
123.98
119.81
115.97
113.50
112.66
112.75
112.29
109.51
102.89
91.68
76.29
58.23
39.59
22.33
7.75
-3.82
-12.95
-20.89
-29.33
-39.96
-53.91
-71.12
-90.06
-107.93
-121.59
-128.85
-129.40
-124.84
-117.85
-110.92
-105.51
-101.80
-99.34
-97.69
-96.97
-97.64
-100.09
-104.21
-109.21
-113.79
-116.52
-116.12
-111.69
-102.88
-89.92
-73.48
-54.56
-34.24
-13.47
6.97
26.37
44.02
59.15
71.06
79.37
84.16
85.95
85.54
83.70
80.98
77.66
73.87
69.64
64.97
59.80
54.06
47.81
41.26
34.77
28.55
22.52
16.17
8.70
-0.69
-12.29
-25.75
-39.96
-53.22
-63.62
-69.37
-69.20
-62.63
-50.10
-32.72
-11.88
11.21
35.79
61.37
87.39
112.86
136.30
155.98
170.46
179.01
181.82
179.84
174.45
166.97
158.45
149.45
140.22
130.89
121.72
113.13
105.57
99.17
93.54
87.70
80.51
71.17
59.69
47.04
34.92
25.25
19.72
19.38
24.26
32.92
42.30
47.96
45.18
30.67
4.36
-29.86
-64.93
-92.79
-107.16
-105.55
-89.79
-64.85
-36.70
-10.37
11.19
