1659767107.00
64.000000
-0.00
-0.00
-0.00
-0.00
-0.00
-0.00
-0.00
-0.00
-0.00
-0.00
0.00
0.01
0.01
-0.00
-0.03
-0.05
-0.05
0.00
0.13
0.36
0.66
1.01
1.37
1.72
2.06
2.40
2.79
3.24
3.80
4.42
5.06
5.66
6.20
6.68
7.15
7.68
8.31
9.14
10.09
11.04
11.88
12.56
13.14
13.76
14.65
15.96
17.91
20.32
22.90
25.38
27.58
29.57
31.68
34.32
37.81
42.54
48.15
54.10
59.83
64.97
69.58
74.14
79.34
85.71
93.76
103.00
112.62
121.73
129.77
136.75
143.30
150.75
157.77
166.64
177.95
191.79
206.97
220.57
228.25
225.36
208.53
176.87
132.76
80.05
23.07
-34.94
-92.44
-149.16
-205.23
-260.38
-313.74
-363.86
-409.80
-450.87
-486.47
-515.76
-537.33
-549.43
-550.28
-538.77
-514.64
-479.11
-434.30
-382.86
-327.46
-270.34
-213.23
-157.36
-103.72
-53.15
-6.66
34.86
70.70
100.54
124.50
143.11
157.16
167.42
174.56
178.98
180.88
180.34
177.53
172.75
166.49
159.33
151.81
144.30
136.90
129.48
121.81
113.66
105.03
96.12
87.35
79.15
71.81
65.29
59.29
53.33
47.00
40.15
32.99
26.01
19.73
14.54
10.44
7.17
4.24
1.16
-2.56
-7.33
-13.30
-20.01
-26.15
-29.62
-28.17
-20.54
-7.21
9.32
25.41
37.66
44.25
45.45
43.02
39.12
35.20
31.62
28.13
24.46
20.84
17.84
15.92
15.02
14.64
14.28
13.91
14.16
15.94
19.73
25.09
30.63
34.62
35.80
33.85
29.48
23.86
18.00
12.48
7.38
2.65
-1.61
-5.11
-7.50
-8.63
-8.64
-7.89
-6.87
-5.91
-5.22
-4.78
-4.43
-4.03
-3.53
-2.99
-2.63
-2.69
-3.27
-4.22
-5.23
-5.93
-6.10
-5.75
-5.07
-4.35
-3.80
-3.50
-3.44
-3.50
-3.55
-3.40
-2.91
-1.96
-0.51
1.28
3.20
5.00
6.46
7.45
7.91
7.89
7.62
7.50
8.10
9.92
13.11
17.23
21.29
24.17
24.80
22.81
18.54
12.88
6.84
1.17
-3.82
-8.09
-11.73
-14.74
-16.95
-18.21
-18.44
-17.79
-16.61
-15.33
-14.25
-13.49
-12.96
-12.41
-11.62
-10.52
-9.22
-7.99
-7.11
-6.75
-6.93
-7.50
-8.18
-8.70
-8.91
-8.78
-8.38
-7.91
-7.56
-7.46
-7.69
-8.15
-8.74
-9.37
-9.94
-10.42
-10.80
-11.11
-11.41
-11.77
-12.18
-12.72
-13.38
-14.03
-14.32
-13.66
-11.43
-7.17
-0.88
7.00
15.46
23.35
29.74
34.19
36.79
37.93
38.09
36.71
33.76
29.44
24.26
18.94
14.17
10.40
7.64
5.58
3.79
2.11
0.49
-0.91
-1.91
-2.49
-2.84
-3.33
-4.28
-5.93
-8.21
-11.02
-14.00
-16.65
-18.56
-19.58
-19.92
-20.12
-20.88
-22.89
-26.61
-31.48
-35.93
-37.76
-34.99
-26.78
-14.08
0.46
13.39
21.43
23.53
20.84
16.03
12.18
11.89
17.07
29.11
48.58
73.69
100.63
124.05
139.01
142.40
133.60
114.52
89.03
63.16
38.67
17.11
-0.27
-12.78
-20.50
-24.13
-24.90
-24.53
-23.05
-21.68
-20.95
-20.87
-21.01
-20.77
-19.68
-17.56
-14.62
-11.34
-8.74
-7.13
-6.33
-5.98
-5.70
-5.28
-4.76
-4.37
-4.33
-5.13
-6.69
-8.69
-10.77
-12.66
-14.28
-15.72
-17.12
-18.53
-20.08
-21.56
-22.61
-23.03
-22.88
-22.52
-22.47
-23.09
-24.18
-25.03
-24.35
-20.82
-13.63
-2.87
10.49
24.84
38.55
50.48
60.22
68.10
74.89
81.28
87.58
93.60
98.77
102.51
104.64
105.54
106.11
107.42
110.34
115.05
120.78
125.78
127.45
122.77
109.09
85.00
51.25
10.97
-30.76
-68.27
-96.88
-114.41
-121.61
-121.74
-119.29
-118.42
-121.90
-130.65
-143.87
-159.66
-175.68
-189.59
-199.33
-203.06
-199.28
-187.18
-167.21
-141.53
-113.98
-89.20
-71.22
-62.18
-61.64
-66.99
-74.52
-80.71
-83.08
-80.33
-72.19
-59.02
-41.68
-21.59
-0.56
19.40
36.56
49.81
58.84
63.98
65.77
64.56
60.27
52.73
42.25
30.19
18.97
11.26
8.79
11.31
16.68
21.76
23.96
22.30
17.41
10.86
3.99
-2.51
-8.45
-13.60
-17.41
-19.29
-19.22
-18.06
-17.30
-18.33
-21.79
-27.35
-34.13
-41.24
-48.11
-54.52
-60.46
-65.83
-70.50
-74.35
-77.38
-79.70
-81.43
-82.66
-83.47
-83.92
-84.00
-83.48
-81.77
-77.98
-71.09
-60.36
-45.62
-27.40
-6.84
14.55
35.18
53.69
69.12
81.10
89.83
95.85
99.80
102.08
102.80
101.83
99.06
94.67
89.16
83.25
77.60
72.52
68.02
63.83
59.71
55.55
51.42
47.50
43.93
40.70
37.60
34.28
30.40
25.81
20.67
15.47
10.93
7.68
6.14
6.19
7.27
8.50
8.99
8.11
5.67
1.91
-2.51
-6.79
-10.12
-12.02
-12.48
-12.12
-12.03
-13.44
-17.33
-23.96
-32.63
-41.83
-49.62
-54.14
-54.13
-49.24
-40.16
-28.43
-15.97
-4.46
5.06
12.49
18.49
23.93
29.39
34.78
39.49
42.76
44.18
43.93
42.73
41.41
40.52
40.00
39.35
37.91
35.29
31.66
27.75
24.68
23.33
23.96
26.00
28.36
29.81
29.63
27.88
25.22
22.46
19.98
17.56
14.52
10.24
4.62
-1.80
-8.00
-13.03
-16.40
-18.19
-18.91
-19.15
-19.33
-19.62
-20.06
-20.68
-21.75
-23.65
-26.79
-31.40
-37.31
-43.93
-50.27
-55.14
-57.37
-56.14
-51.08
-42.39
-30.83
-17.50
-3.69
9.39
20.76
29.77
36.06
39.53
40.31
38.72
35.31
30.86
26.23
22.28
19.63
18.53
18.84
20.12
21.76
23.24
24.20
24.48
24.05
22.89
21.04
18.58
15.69
12.68
9.84
7.39
5.24
3.14
0.75
-2.13
-5.38
-8.67
-11.62
-13.98
-15.77
-17.18
-18.47
-19.71
-20.84
-21.69
-22.15
-22.31
-22.43
-22.83
-23.80
-25.48
-27.82
-30.69
-33.84
-36.96
-39.55
-40.91
-40.21
-36.78
-30.45
-21.75
-11.80
-1.88
7.06
14.73
21.35
27.32
32.73
37.18
39.96
40.55
38.98
35.96
32.55
29.75
28.02
27.28
27.06
26.86
26.38
25.62
24.71
23.88
23.18
22.52
21.70
20.46
18.62
16.13
13.13
9.97
7.10
4.87
3.46
2.78
2.64
2.85
3.28
3.88
4.53
5.00
4.94
4.11
2.45
0.23
-2.16
-4.36
-6.28
-8.17
-10.50
-13.69
-17.86
-22.58
-26.89
-29.55
-29.44
-26.00
-19.52
-11.04
-2.04
6.06
12.30
16.32
18.25
18.49
17.48
15.63
13.26
10.65
8.06
5.72
3.79
2.38
1.54
1.28
1.56
2.30
3.39
4.64
5.82
6.62
6.71
5.77
3.60
0.22
-4.09
-8.88
-13.62
-17.92
-21.54
-24.42
-26.55
-27.96
-28.64
-28.57
-27.81
-26.54
-25.00
-23.51
-22.32
-21.55
-21.13
-20.92
-20.80
-20.78
-21.07
-21.98
-23.87
-26.91
-31.02
-35.71
-40.13
-43.15
-43.65
-40.83
-34.51
-25.25
-14.23
-2.88
7.51
16.12
22.59
26.93
29.23
29.70
28.63
26.53
24.04
21.81
20.26
19.46
19.18
19.01
18.60
17.73
16.33
14.50
12.48
10.65
9.48
9.35
10.43
12.51
15.07
17.54
19.48
20.71
21.30
21.38
21.07
20.38
19.40
18.25
17.17
16.34
15.77
15.23
14.34
12.75
10.26
6.95
3.12
-0.84
-4.58
-7.87
-10.68
-13.13
-15.51
-18.18
-21.44
-25.46
-30.06
-34.63
-38.20
-39.68
-38.22
-33.58
-26.32
-17.54
-8.57
-0.48
6.19
11.34
15.13
17.65
18.84
18.57
16.89
14.13
10.85
7.62
4.79
2.44
0.41
-1.52
-3.44
-5.30
-6.94
-8.15
-8.77
-8.70
-7.90
-6.41
-4.35
-1.84
1.01
4.16
7.58
11.25
14.97
18.42
21.08
22.44
22.16
20.22
16.87
12.59
7.83
2.91
-2.00
-6.78
-11.23
-15.07
-18.05
-20.07
-21.35
-22.34
-23.47
-24.97
-26.72
-28.37
-29.60
-30.21
-30.19
-29.49
-27.89
-24.96
-20.32
-13.87
-5.99
2.48
10.57
17.44
22.65
26.11
27.99
28.56
28.04
26.66
24.62
22.19
19.59
17.01
14.64
12.62
11.11
10.27
10.17
10.75
11.83
13.06
14.08
14.60
14.51
13.94
13.14
12.34
11.68
11.08
10.34
9.25
7.73
5.87
3.88
2.02
0.48
-0.62
-1.31
-1.75
-2.19
-2.94
-4.25
-6.23
-8.79
-11.62
-14.36
-16.70
-18.51
-19.85
-20.94
-22.11
-23.67
-25.87
-28.79
-32.23
-35.66
-38.28
-39.24
-37.85
-33.83
-27.44
-19.34
-10.39
-1.45
6.81
13.94
19.64
23.79
26.43
27.74
28.07
27.81
27.29
26.72
26.20
25.78
25.51
25.47
25.68
26.01
26.24
26.08
25.38
24.13
22.51
20.67
18.64
16.33
13.56
10.24
6.48
2.61
-0.97
-3.92
-6.10
-7.58
-8.60
-9.41
-10.26
-11.26
-12.48
-13.87
-15.35
-16.77
-17.98
-18.88
-19.48
-19.95
-20.57
-21.67
-23.46
-25.86
-28.49
-30.64
-31.49
-30.40
-27.09
-21.71
-14.79
-7.03
0.94
8.64
15.78
22.20
27.77
32.35
35.89
38.42
40.12
41.30
42.22
43.02
43.72
44.19
44.30
43.99
43.31
42.40
41.44
40.54
39.67
38.75
37.62
36.16
34.28
31.95
29.10
25.68
21.63
17.06
12.22
7.46
3.13
-0.64
-3.91
-6.94
-9.95
-13.03
-16.13
-19.17
-22.10
-24.94
-27.77
-30.59
-33.27
-35.64
-37.52
-38.90
-39.89
-40.74
-41.74
-43.09
-44.80
-46.58
-47.90
-48.00
-46.23
-42.24
-36.20
-28.75
-20.79
-13.16
-6.39
-0.67
4.07
7.95
11.03
13.31
14.76
15.51
15.79
15.89
16.09
16.51
17.14
17.84
18.53
19.21
19.92
20.71
21.56
22.32
22.85
23.02
22.81
22.28
21.52
20.56
19.40
18.01
16.39
14.55
12.53
10.35
8.03
5.65
3.33
1.19
-0.73
-2.50
-4.30
-6.28
-8.48
-10.76
-12.92
-14.78
-16.32
-17.68
-19.12
-20.83
-22.95
-25.53
-28.53
-31.82
-35.13
-37.93
-39.55
-39.28
-36.68
-31.80
-25.20
-17.84
-10.70
-4.59
0.11
3.42
5.61
7.07
8.14
9.05
9.91
10.73
11.47
12.11
12.59
12.89
12.99
12.90
12.65
12.31
12.05
12.01
12.26
12.72
13.20
13.42
13.17
12.40
11.24
9.84
8.41
7.03
5.71
4.38
2.99
1.51
-0.01
-1.44
-2.63
-3.45
-3.87
-4.02
-4.15
-4.57
-5.46
-6.80
-8.39
-9.96
-11.26
-12.28
-13.16
-14.13
-15.43
-17.23
-19.53
-22.15
-24.66
-26.41
-26.66
-24.79
-20.51
-14.08
-6.16
2.29
10.37
17.40
23.05
27.24
30.07
31.75
32.51
32.57
32.17
31.45
30.46
29.18
27.56
25.58
23.27
20.77
18.24
15.87
13.82
12.15
10.82
9.68
8.51
7.14
5.49
3.64
1.76
0.03
-1.42
-2.56
-3.45
-4.19
-4.90
-5.68
-6.58
-7.58
-8.59
-9.46
-10.08
-10.45
-10.75
-11.23
-12.13
-13.49
-15.16
-16.83
-18.18
-19.08
-19.60
-19.98
-20.52
-21.47
-22.93
-24.81
-26.80
-28.39
-28.97
-27.98
-25.15
-20.57
-14.70
-8.23
-1.89
3.80
8.54
12.24
14.96
16.81
17.90
18.36
18.28
17.78
16.98
16.03
15.05
14.15
13.41
12.84
12.45
12.22
12.15
12.18
12.22
12.17
11.88
11.28
10.37
9.26
8.13
7.13
6.32
5.61
4.81
3.72
2.21
0.35
-1.67
-3.54
-5.04
-6.09
-6.83
-7.50
-8.36
-9.51
-10.92
-12.45
-13.94
-15.31
-16.53
-17.65
-18.74
-19.91
-21.27
-22.87
-24.60
-26.15
-27.00
-26.59
-24.50
-20.64
-15.32
-9.16
-2.86
3.01
8.07
12.17
15.28
17.45
18.75
19.29
19.24
18.76
18.04
17.22
16.44
15.81
15.38
15.15
15.02
14.93
14.81
14.70
14.66
14.69
14.68
14.39
13.59
12.17
10.29
8.24
6.38
4.89
3.76
2.79
1.73
0.43
-1.15
-2.90
-4.73
-6.53
-8.26
-9.91
-11.47
-12.88
-14.12
-15.14
-15.98
-16.69
-17.40
-18.24
-19.38
-20.94
-23.00
-25.46
-28.05
-30.20
-31.23
-30.47
-27.56
-22.60
-16.17
-9.13
-2.32
3.65
8.56
12.47
15.57
17.96
19.69
20.74
21.15
21.03
20.61
20.07
19.48
18.82
18.02
17.04
15.91
14.80
13.88
13.31
13.10
13.11
13.11
12.83
12.10
10.90
9.36
7.73
6.27
5.13
4.32
3.70
3.05
2.18
1.01
-0.43
-1.95
-3.34
-4.45
-5.24
-5.87
-6.58
-7.64
-9.14
-10.98
-12.88
-14.53
-15.73
-16.55
-17.28
-18.33
-20.05
-22.51
-25.50
-28.46
-30.67
-31.41
-30.18
-26.83
-21.62
-15.17
-8.25
-1.58
4.33
9.22
13.08
16.01
18.14
19.56
20.36
20.63
20.48
20.03
19.39
18.68
18.00
17.41
16.91
16.49
16.11
15.76
15.44
15.14
14.83
14.41
13.77
12.82
11.57
10.13
8.66
7.29
6.09
5.00
3.91
2.68
1.23
-0.47
-2.30
-4.07
-5.56
-6.64
-7.39
-8.02
-8.85
-10.08
-11.67
-13.40
-14.99
-16.28
-17.34
-18.43
-19.82
-21.64
-23.87
-26.36
-28.92
-31.35
-33.34
-34.42
-34.07
-31.88
-27.77
-22.09
-15.53
-8.85
-2.64
2.81
7.44
11.27
14.23
16.20
17.10
17.05
16.42
15.68
15.25
15.29
15.72
16.28
16.73
17.01
17.25
17.63
18.28
19.16
20.22
21.40
22.78
24.50
26.59
28.82
30.67
31.41
30.35
27.12
21.83
15.02
7.57
0.38
-5.83
-10.62
-13.86
-15.74
-16.67
-17.17
-17.71
-18.57
-19.81
-21.26
-22.66
-23.80
-24.63
-25.32
-26.13
-27.33
-28.99
-30.97
-32.84
-34.06
-34.06
-32.47
-29.19
-24.45
-18.72
-12.56
-6.46
-0.81
4.10
8.06
10.89
12.51
13.00
12.63
11.74
10.69
9.75
9.03
8.52
8.12
7.71
7.16
6.44
5.60
4.83
4.35
4.34
4.83
5.69
6.64
7.44
7.87
7.82
7.23
6.15
4.67
2.99
1.42
0.26
-0.26
-0.16
0.35
0.87
0.97
0.27
-1.40
-3.97
-7.16
-10.52
-13.56
-15.96
-17.66
-18.92
-20.19
-21.96
-24.49
-27.66
-30.92
-33.45
-34.39
-33.13
-29.55
-24.05
-17.39
-10.43
-3.82
2.12
7.36
11.99
16.02
19.40
22.00
23.74
24.60
24.59
23.72
22.13
20.18
18.62
18.34
20.08
23.99
29.33
34.72
38.66
40.12
38.96
35.86
31.91
28.05
24.75
21.95
19.29
16.44
13.23
9.70
5.96
2.00
-2.31
-7.16
-12.59
-18.39
-24.01
-28.78
-32.17
-34.02
-34.61
-34.52
-34.37
-34.57
-35.19
-36.09
-37.01
-37.75
-38.18
-38.12
-37.32
-35.46
-32.22
-27.50
-21.41
-14.30
-6.57
1.33
8.98
15.93
21.74
25.99
28.45
29.18
28.54
27.05
25.29
23.64
22.30
21.30
20.61
20.11
19.62
18.87
17.66
16.10
14.71
14.33
15.76
19.25
24.18
29.16
32.59
33.33
31.22
27.06
22.14
17.61
14.04
11.35
9.12
6.87
4.36
1.53
-1.56
-4.87
-8.35
-11.93
-15.45
-18.73
-21.57
-23.84
-25.55
-26.83
-27.93
-29.21
-31.01
-33.44
-36.24
-38.79
-40.18
-39.61
-36.72
-31.72
-25.31
-18.35
-11.58
-5.40
0.07
4.84
8.90
12.19
14.61
16.19
17.06
17.46
17.60
17.65
17.70
17.80
17.97
18.22
18.54
18.86
19.14
19.36
19.52
19.68
19.85
20.01
20.07
19.89
19.34
18.36
16.99
15.35
13.56
11.76
10.01
8.30
6.62
4.95
3.31
1.75
0.31
-1.01
-2.26
-3.54
-4.94
-6.57
-8.46
-10.65
-13.14
-15.92
-18.85
-21.61
-23.72
-24.56
-23.61
-20.65
-15.90
-9.96
-3.66
2.25
7.28
11.24
14.11
15.92
16.61
16.01
14.06
10.91
7.05
3.18
0.05
-1.87
-2.50
-2.16
-1.37
-0.59
-0.11
0.07
0.06
-0.09
-0.37
-0.85
-1.58
-2.45
-3.33
-4.01
-4.43
-4.61
-4.70
-4.86
-5.22
-5.83
-6.71
-7.83
-9.12
-10.54
-11.99
-13.38
-14.62
-15.63
-16.37
-16.88
-17.24
-17.62
-18.25
-19.35
-21.02
-23.22
-25.69
-27.97
-29.48
-29.66
-28.08
-24.56
-19.25
-12.63
-5.37
1.84
8.48
14.23
19.06
23.06
26.31
28.80
30.46
31.22
31.09
30.23
28.90
27.45
26.18
25.26
24.70
24.38
24.11
23.79
23.41
23.09
22.94
22.97
23.02
22.77
21.90
20.19
17.61
14.27
10.43
6.36
2.35
-1.42
-4.83
-7.95
-10.94
-13.98
-17.19
-20.49
-23.65
-26.40
-28.53
-30.03
-31.08
-31.99
-33.04
-34.48
-36.41
-38.81
-41.51
-44.16
-46.31
-47.41
-47.02
-44.94
-41.24
-36.32
-30.75
-25.17
-20.09
-15.82
-12.41
-9.74
-7.60
-5.84
-4.34
-3.10
-2.10
-1.32
-0.66
0.04
0.93
2.18
3.95
6.32
9.35
12.99
17.13
21.58
26.09
30.40
34.20
37.13
38.86
39.21
38.21
36.22
33.74
31.27
29.10
27.16
25.22
22.94
20.14
16.79
13.04
9.10
5.17
1.46
-1.90
-4.85
-7.43
-9.86
-12.42
-15.38
-18.82
-22.50
-25.88
-28.20
-28.80
-27.32
-23.83
-18.84
-13.12
-7.43
-2.29
2.04
5.56
8.34
10.42
11.79
12.45
12.54
12.29
11.99
11.87
11.98
12.20
12.36
12.27
11.89
11.27
10.56
9.92
9.43
9.06
8.67
8.09
7.17
5.86
4.25
2.50
0.78
-0.81
-2.25
-3.58
-4.84
-6.04
-7.15
-8.17
-9.18
-10.24
-11.42
-12.67
-13.93
-15.08
-16.12
-17.06
-18.04
-19.17
-20.57
-22.32
-24.44
-26.88
-29.37
-31.47
-32.57
-32.06
-29.52
-24.85
-18.37
-10.71
-2.70
4.91
11.53
16.82
20.72
23.35
24.86
25.46
25.31
24.62
23.61
22.55
21.69
21.18
21.03
21.10
21.26
21.37
21.38
21.29
21.09
20.78
20.30
19.63
18.74
17.62
16.28
14.71
12.91
10.88
8.59
6.05
3.32
0.52
-2.15
-4.49
-6.34
-7.73
-8.85
-9.95
-11.30
-12.98
-14.95
-17.06
-19.14
-21.08
-22.80
-24.32
-25.72
-27.13
-28.80
-30.94
-33.64
-36.65
-39.36
-40.85
-40.22
-36.86
-30.72
-22.31
-12.59
-2.65
6.58
14.42
20.56
24.90
27.54
28.67
28.58
27.60
26.06
24.28
22.52
21.01
19.87
19.20
18.98
19.11
19.38
19.61
19.63
19.40
18.96
18.36
17.66
16.82
15.77
14.48
12.94
11.20
9.32
7.35
5.26
3.06
0.77
-1.49
-3.51
-5.12
-6.24
-6.99
-7.65
-8.55
-9.93
-11.78
-13.88
-15.87
-17.44
-18.48
-19.14
-19.71
-20.56
-21.94
-23.91
-26.28
-28.61
-30.22
-30.31
-28.18
-23.46
-16.29
-7.36
2.23
11.34
19.07
24.91
28.80
30.91
31.49
30.82
29.17
26.86
24.27
21.76
19.56
17.72
16.19
14.86
13.69
12.71
11.98
11.53
11.33
11.26
11.18
10.90
10.30
9.28
7.83
6.01
3.93
1.69
-0.61
-2.90
-5.17
-7.36
-9.40
-11.21
-12.73
-13.94
-14.91
-15.79
-16.65
-17.55
-18.43
-19.17
-19.67
-19.97
-20.20
-20.66
-21.66
-23.46
-26.14
-29.48
-32.90
-35.52
-36.31
-34.37
-29.24
-21.12
-10.86
0.24
10.87
19.95
26.92
31.67
34.39
35.42
35.07
33.63
31.42
28.74
25.96
23.39
21.26
19.68
18.60
17.85
17.27
16.71
16.18
15.78
15.61
15.68
15.83
15.75
15.11
13.70
11.49
8.71
5.72
2.86
0.40
-1.62
-3.28
-4.80
-6.35
-8.07
-9.94
-11.82
-13.54
-14.97
-16.07
-16.89
-17.53
-18.01
-18.39
-18.72
-19.11
-19.70
-20.52
-21.36
-21.77
-21.12
-18.90
-14.91
-9.42
-3.03
3.47
9.40
14.29
17.98
20.48
21.95
22.55
22.49
21.99
21.27
20.57
20.06
19.84
19.85
19.97
20.00
19.84
19.47
18.95
18.38
17.78
17.03
15.89
14.13
11.61
8.39
4.76
1.07
-2.35
-5.35
-7.99
-10.43
-12.86
-15.43
-18.11
-20.83
-23.43
-25.77
-27.73
-29.28
-30.43
-31.24
-31.79
-32.21
-32.69
-33.46
-34.77
-36.69
-39.03
-41.25
-42.56
-42.16
-39.54
-34.67
-27.98
-20.21
-12.13
-4.36
2.65
8.64
13.44
16.96
19.24
20.45
20.88
20.84
20.59
20.27
19.98
19.70
19.42
19.11
18.72
18.23
17.67
17.08
16.50
15.93
15.25
14.35
13.14
11.59
9.80
7.91
6.01
4.13
2.25
0.36
-1.51
-3.30
-4.94
-6.43
-7.81
-9.15
-10.49
-11.84
-13.22
-14.72
-16.45
-18.50
-20.85
-23.26
-25.26
-26.30
-25.90
-23.85
-20.21
-15.36
-9.85
-4.20
1.13
5.85
9.80
12.93
15.26
16.82
17.67
17.87
17.51
16.72
15.68
14.61
13.71
13.10
12.85
12.90
13.13
13.44
13.68
13.76
13.59
13.09
12.21
10.92
9.29
7.45
5.59
3.83
2.22
0.70
-0.87
-2.58
-4.44
-6.40
-8.34
-10.19
-11.93
-13.59
-15.14
-16.59
-17.94
-19.25
-20.65
-22.22
-23.83
-25.16
-25.70
-24.94
-22.63
-18.82
-13.86
-8.27
-2.55
2.91
7.82
11.98
15.23
17.51
18.87
19.52
19.80
20.14
20.88
22.19
24.03
26.15
28.12
29.52
30.02
29.54
28.24
26.38
24.30
22.20
20.09
17.84
15.27
12.26
8.80
5.07
1.31
-2.20
-5.30
-7.97
-10.34
-12.57
-14.80
-17.04
-19.19
-21.07
-22.52
-23.50
-24.09
-24.45
-24.78
-25.27
-26.09
-27.28
-28.73
-30.08
-30.82
-30.32
-28.14
-24.11
-18.46
-11.71
-4.56
2.38
8.61
13.89
18.13
21.39
23.77
25.44
26.58
27.36
27.94
28.41
28.85
29.31
29.86
30.55
31.47
32.63
34.03
35.54
37.00
38.20
39.01
39.38
39.45
39.50
39.93
41.10
43.16
45.89
48.78
51.22
52.85
53.71
54.24
54.89
55.67
55.98
54.68
50.61
43.05
32.03
18.07
1.93
-15.63
-33.77
-51.29
-66.55
-77.69
-83.34
-83.25
-78.53
-71.18
-63.33
-56.37
-50.75
-46.28
-42.68
-39.97
-38.40
-38.03
-38.38
-38.50
-37.37
-34.44
-29.92
-24.65
-19.58
-15.36
-12.11
-9.58
-7.41
-5.42
-3.56
-1.88
-0.34
1.18
2.80
4.53
6.23
7.58
8.25
8.04
6.95
5.20
3.13
1.04
-0.91
-2.73
-4.53
-6.41
-8.35
-10.24
-11.98
-13.53
-14.93
-16.31
-17.78
-19.38
-21.13
-23.10
-25.37
-27.95
-30.63
-32.90
-34.00
-33.16
-29.90
-24.26
-16.80
-8.41
-0.05
7.46
13.62
18.24
21.37
23.27
24.22
24.48
24.24
23.59
22.62
21.49
20.40
19.54
19.01
18.77
18.64
18.45
18.05
17.44
16.72
15.97
15.26
14.55
13.72
12.63
11.17
9.29
7.06
4.66
2.34
0.31
-1.33
-2.62
-3.76
-5.01
-6.60
-8.62
-11.03
-13.63
-16.16
-18.41
-20.23
-21.63
-22.76
-23.85
-25.20
-27.02
-29.45
-32.37
-35.39
-37.79
-38.71
-37.34
-33.26
-26.61
-18.14
-8.98
-0.27
7.10
12.76
16.72
19.27
20.73
21.38
21.39
20.88
20.00
18.91
17.85
17.03
16.58
16.50
16.70
17.01
17.26
17.33
17.19
16.85
16.29
15.45
14.28
12.77
11.01
9.17
7.36
5.63
3.93
2.14
0.22
-1.80
-3.81
-5.69
-7.40
-8.98
-10.53
-12.19
-13.98
-15.85
-17.71
-19.43
-20.93
-22.22
-23.39
-24.59
-26.08
-28.07
-30.68
-33.80
-36.94
-39.33
-40.06
-38.39
-34.00
-27.17
-18.67
-9.57
-0.89
6.69
12.85
17.57
20.97
23.15
24.19
24.17
23.32
21.93
20.40
19.05
18.04
17.39
17.04
16.94
17.04
17.33
17.74
18.10
18.23
17.99
17.32
16.27
14.92
13.29
11.41
9.33
7.13
5.00
3.06
1.35
-0.24
-1.90
-3.80
-5.99
-8.37
-10.75
-12.91
-14.72
-16.10
-17.09
-17.80
-18.43
-19.21
-20.43
-22.31
-24.97
-28.34
-32.06
-35.43
-37.52
-37.41
-34.42
-28.43
-20.01
-10.19
-0.25
8.71
16.03
21.48
25.17
27.34
28.22
28.03
26.98
25.36
23.49
21.69
20.16
19.02
18.27
17.87
17.73
17.78
17.95
18.16
18.35
18.43
18.30
17.87
17.02
15.72
14.02
12.03
9.93
7.88
6.00
4.46
3.44
3.23
4.08
6.13
9.35
13.45
17.96
22.30
25.86
28.01
28.22
26.19
22.01
16.24
9.87
4.05
-0.22
-2.35
-2.26
-0.28
3.03
7.01
11.03
14.56
17.18
18.72
19.22
18.89
18.00
16.68
14.85
12.19
8.34
3.02
-3.77
-11.69
-20.13
-28.22
-35.09
-40.00
-42.49
-42.51
-40.43
-36.90
-32.64
-28.29
-24.19
-20.49
-17.24
-14.55
-12.60
-11.60
-11.63
-12.51
-13.83
-15.10
-16.01
-16.52
-16.84
-17.34
-18.28
-19.70
-21.45
-23.24
-24.82
-26.10
-27.13
-28.10
-29.19
-30.59
-32.46
-34.91
-37.92
-41.18
-44.03
-45.54
-44.73
-41.01
-34.41
-25.64
-15.86
-6.27
2.22
9.19
14.62
18.70
21.64
23.58
24.61
24.85
24.53
23.96
23.50
23.44
23.94
24.95
26.25
27.51
28.43
28.85
28.78
28.39
27.86
27.29
26.62
25.68
24.26
22.22
19.59
16.54
13.40
10.49
8.03
6.10
4.53
3.03
1.30
-0.88
-3.48
-6.33
-9.10
-11.54
-13.55
-15.20
-16.73
-18.47
-20.68
-23.50
-26.88
-30.49
-33.74
-35.85
-35.99
-33.58
-28.49
-21.13
-12.37
-3.29
5.10
12.12
17.51
21.35
23.93
25.55
26.39
26.54
26.01
24.93
23.50
22.07
20.94
20.29
20.07
20.08
20.03
19.72
19.12
18.33
17.52
16.78
16.10
15.31
14.24
12.72
10.71
8.29
5.69
3.17
0.95
-0.91
-2.48
-3.99
-5.63
-7.48
-9.46
-11.37
-13.00
-14.27
-15.23
-16.08
-17.03
-18.30
-20.05
-22.39
-25.28
-28.49
-31.46
-33.38
-33.36
-30.78
-25.54
-18.19
-9.72
-1.27
6.25
12.39
17.09
20.54
22.94
24.40
24.96
24.70
23.85
22.75
21.76
21.11
20.86
20.87
20.97
21.01
20.89
20.64
20.29
19.89
19.47
19.00
18.44
17.64
16.42
14.63
12.27
9.50
6.63
4.03
1.90
0.27
-1.05
-2.35
-3.83
-5.62
-7.67
-9.91
-12.22
-14.47
-16.59
-18.47
-20.09
-21.50
-22.89
-24.52
-26.68
-29.48
-32.79
-36.07
-38.46
-39.01
-36.97
-32.10
-24.82
-16.06
-6.97
1.41
8.41
13.81
17.69
20.34
22.02
23.02
23.55
23.81
23.96
24.06
24.08
23.96
23.63
23.06
22.29
21.44
20.61
19.95
19.50
19.23
19.00
18.61
17.87
16.67
15.00
12.95
10.63
8.15
5.65
3.21
0.94
-1.07
-2.80
-4.33
-5.78
-7.31
-9.04
-10.98
-13.03
-15.02
-16.84
-18.37
-19.64
-20.73
-21.80
-23.02
-24.56
-26.56
-29.07
-31.96
-34.83
-36.92
-37.38
-35.45
-30.83
-23.86
-15.47
-6.81
1.06
7.54
12.54
16.30
19.14
21.27
22.73
23.50
23.62
23.26
22.68
22.14
21.83
21.78
21.90
22.01
21.97
21.70
21.17
20.46
19.60
18.64
17.54
16.29
14.86
13.26
11.54
9.72
7.81
5.83
3.79
1.76
-0.17
-1.94
-3.54
-5.04
-6.52
-8.07
-9.73
-11.51
-13.34
-15.17
-16.90
-18.45
-19.78
-20.96
-22.12
-23.52
-25.39
-27.88
-30.92
-34.10
-36.76
-38.04
-37.22
-33.94
-28.33
-21.02
-12.93
-4.97
2.14
8.04
12.67
16.14
18.58
20.15
20.96
21.16
20.94
20.52
20.11
19.86
19.82
19.96
20.14
20.17
19.89
19.24
18.26
17.09
15.89
14.78
13.78
12.81
11.79
10.61
9.21
7.55
5.62
3.45
1.11
-1.23
-3.40
-5.24
-6.69
-7.82
-8.81
-9.86
-11.10
-12.57
-14.19
-15.84
-17.42
-18.87
-20.23
-21.55
-22.94
-24.50
-26.33
-28.49
-30.83
-32.99
-34.36
-34.25
-32.11
-27.77
-21.55
-14.21
-6.63
0.41
6.42
11.27
15.02
17.75
19.53
20.36
20.33
19.60
18.51
17.42
16.66
16.40
16.63
17.16
17.71
18.06
18.02
17.56
16.78
15.80
14.77
13.73
12.70
11.61
10.36
8.86
7.05
4.98
2.73
0.47
-1.67
-3.63
-5.46
-7.27
-9.17
-11.18
-13.14
-14.86
-16.14
-16.94
-17.45
-17.97
-18.85
-20.34
-22.49
-25.20
-28.17
-30.93
-32.86
-33.27
-31.58
-27.52
-21.30
-13.60
-5.36
2.53
9.40
14.96
19.20
22.30
24.48
25.92
26.70
26.88
26.47
25.52
24.19
22.75
21.49
20.62
20.17
19.97
19.77
19.38
18.73
17.89
16.97
15.99
14.87
13.50
11.78
9.70
7.33
4.82
2.32
-0.04
-2.20
-4.15
-5.98
-7.77
-9.63
-11.55
-13.48
-15.33
-17.05
-18.67
-20.27
-21.90
-23.57
-25.23
-26.87
-28.62
-30.68
-33.20
-36.07
-38.74
-40.36
-39.99
-36.98
-31.29
-23.50
-14.59
-5.66
2.43
9.18
14.47
18.39
21.13
22.92
23.97
24.47
24.56
24.38
24.02
23.53
22.99
22.45
21.95
21.49
21.04
20.55
19.98
19.29
18.48
17.51
16.36
14.99
13.37
11.48
9.34
6.97
4.43
1.81
-0.81
-3.36
-5.76
-8.04
-10.22
-12.40
-14.63
-16.91
-19.18
-21.32
-23.31
-25.16
-26.95
-28.79
-30.77
-32.91
-35.19
-37.50
-39.70
-41.55
-42.62
-42.38
-40.25
-35.84
-29.12
-20.51
-10.78
-0.91
8.15
15.67
21.25
24.77
26.39
26.48
25.50
23.94
22.25
20.72
19.50
18.57
17.77
16.89
15.69
13.96
11.63
8.82
5.88
3.24
1.24
-0.09
-1.13
-2.61
-5.31
-9.76
-15.93
-23.19
-30.52
-36.85
-41.48
-44.27
-45.68
-46.45
-47.35
-48.79
-50.85
-53.28
-55.74
-57.97
-59.82
-61.22
-62.12
-62.47
-62.22
-61.49
-60.51
-59.55
-58.64
-57.36
-54.82
-49.91
-41.76
-30.09
-15.39
1.24
18.56
35.52
51.48
66.07
78.97
89.76
97.90
102.97
104.91
104.11
101.36
97.63
93.77
90.41
87.79
85.82
84.15
82.33
80.01
77.07
73.77
70.53
67.80
65.77
64.25
62.79
60.94
58.56
55.96
53.82
52.82
53.32
55.17
57.78
60.40
62.52
63.97
64.90
65.58
66.23
66.92
67.67
68.38
68.65
67.68
64.27
57.23
45.93
30.62
12.49
-6.81
-25.74
-43.31
-59.08
-72.84
-84.25
-92.78
-97.96
-99.60
-98.02
-94.02
-88.80
-83.82
-80.56
-80.27
-83.44
-89.52
-96.85
-103.15
-106.32
-105.24
-100.10
-92.20
-83.21
-74.34
-65.97
-57.79
-49.29
-40.28
-31.12
-22.40
-14.64
-7.83
-1.43
5.32
12.89
21.08
29.11
35.92
40.68
43.19
43.90
43.69
43.40
43.45
43.61
43.13
40.95
36.24
28.66
18.55
6.79
-5.41
-16.85
-26.56
-33.90
-38.54
-40.42
-39.76
-36.99
-32.64
-27.33
-21.55
-15.76
-10.25
-5.26
-1.00
2.43
4.97
6.70
7.78
8.46
8.95
9.39
9.84
10.31
10.80
11.34
11.99
12.76
13.62
14.46
15.09
15.39
15.36
15.11
14.80
14.57
14.40
14.15
13.63
12.72
11.42
9.90
8.34
6.86
5.45
4.06
2.63
1.19
-0.20
-1.42
-2.40
-3.09
-3.46
-3.53
-3.38
-3.20
-3.30
-3.92
-5.06
-6.33
-6.98
-6.11
-3.10
2.16
9.16
16.95
24.45
30.82
35.59
38.75
40.57
41.54
42.14
42.74
43.49
44.21
44.48
43.72
41.44
37.52
32.22
26.19
20.08
14.34
8.96
3.55
-2.44
-9.43
-17.43
-26.10
-34.79
-42.86
-49.78
-55.17
-58.84
-60.70
-60.77
-59.23
-56.46
-53.00
-49.44
-46.21
-43.56
-41.40
-39.40
-37.11
-34.18
-30.49
-26.28
-22.05
-18.44
-15.95
-14.78
-14.69
-15.12
-15.28
-14.45
-12.08
-8.03
-2.49
4.05
10.91
17.48
23.26
27.94
31.44
33.71
34.80
34.78
33.77
31.96
29.49
26.43
22.82
18.82
14.74
11.06
8.26
6.58
5.90
5.74
5.58
5.07
4.19
3.09
1.96
0.78
-0.63
-2.45
-4.66
-7.04
-9.28
-11.16
-12.76
-14.31
-16.05
-18.09
-20.30
-22.40
-24.14
-25.41
-26.30
-26.98
-27.68
-28.64
-30.01
-31.82
-33.96
-36.09
-37.66
-38.03
-36.62
-33.13
-27.62
-20.48
-12.36
-3.92
4.29
11.84
18.50
24.11
28.56
31.81
33.89
34.94
35.20
34.96
34.48
33.88
33.22
32.49
31.74
31.08
30.62
30.40
30.35
30.25
29.92
29.23
28.17
26.75
24.96
22.70
19.89
16.51
12.77
8.96
5.43
2.41
-0.13
-2.37
-4.60
-7.00
-9.60
-12.22
-14.62
-16.61
-18.16
-19.41
-20.64
-22.15
-24.15
-26.62
-29.30
-31.59
-32.74
-31.97
-28.77
-23.07
-15.33
-6.41
2.69
11.09
18.23
23.85
27.98
30.75
32.35
32.99
32.86
32.17
31.09
29.79
28.46
27.25
26.26
25.48
24.82
24.13
23.30
22.29
21.15
19.90
18.51
16.81
14.66
11.94
8.72
5.17
1.48
-2.18
-5.73
-9.12
-12.31
-15.23
-17.84
-20.15
-22.25
-24.25
-26.18
-27.97
-29.49
-30.56
-31.08
-31.11
-30.90
-30.80
-31.20
-32.38
-34.37
-36.80
-38.95
-39.90
-38.84
-35.33
-29.51
-22.07
-14.01
-6.30
0.34
5.59
9.46
12.12
13.79
14.62
14.75
14.34
13.56
12.62
11.67
10.80
10.08
9.53
9.20
9.18
9.55
10.33
11.46
12.69
13.73
14.26
14.13
13.35
12.10
10.61
9.08
7.55
6.01
4.38
2.66
0.88
-0.85
-2.48
-3.98
-5.38
-6.72
-8.02
-9.26
-10.40
-11.39
-12.19
-12.82
-13.34
-13.89
-14.66
-15.83
-17.49
-19.60
-21.82
-23.60
-24.28
-23.27
-20.34
-15.64
-9.75
-3.45
2.50
7.55
11.48
14.31
16.18
17.28
17.74
17.64
17.06
16.07
14.86
13.65
12.67
12.10
11.99
12.27
12.76
13.32
13.84
14.31
14.71
14.97
14.96
14.52
13.58
12.15
10.40
8.51
6.68
5.02
3.59
2.32
1.09
-0.26
-1.87
-3.76
-5.87
-7.99
-9.90
-11.41
-12.45
-13.10
-13.52
-13.96
-14.68
-15.93
-17.79
-20.19
-22.81
-25.07
-26.31
-25.89
-23.44
-18.98
-12.95
-6.05
0.89
7.20
12.41
16.34
19.02
20.60
21.25
21.15
20.50
19.53
18.44
17.40
16.51
15.77
15.17
14.72
14.44
14.38
14.57
14.97
15.49
16.01
16.38
16.44
16.05
15.08
13.51
11.43
9.04
6.62
4.39
2.49
0.93
-0.40
-1.68
-3.07
-4.69
-6.58
-8.68
-10.85
-12.93
-14.77
-16.34
-17.69
-18.93
-20.16
-21.46
-22.88
-24.48
-26.30
-28.26
-30.01
-30.98
-30.45
-27.89
-23.17
-16.67
-9.20
-1.74
4.92
10.30
14.32
17.14
18.99
20.06
20.47
20.26
19.55
18.49
17.32
16.22
15.36
14.75
14.34
14.03
13.76
13.51
13.32
13.20
13.09
12.89
12.45
11.67
10.54
9.13
7.51
5.74
3.89
1.98
0.07
-1.77
-3.50
-5.04
-6.40
-7.60
-8.68
-9.73
-10.86
-12.17
-13.70
-15.39
-16.99
-18.23
-18.92
-19.06
-18.91
-18.88
-19.35
-20.58
-22.50
-24.79
-26.87
-28.05
-27.68
-25.29
-20.78
-14.49
-7.15
0.31
6.98
12.21
15.74
17.67
18.30
18.09
17.41
16.58
15.75
14.97
14.22
13.50
12.85
12.34
12.05
11.99
12.14
12.43
12.77
13.13
13.46
13.72
13.87
13.83
13.52
12.90
11.94
10.64
9.04
7.27
5.51
3.98
2.84
2.14
1.77
1.55
1.27
0.85
0.36
0.03
0.10
0.77
2.06
3.77
5.59
7.09
7.92
7.92
7.28
6.62
6.92
9.26
14.48
22.89
34.05
46.87
59.82
71.33
80.09
85.27
86.66
84.56
79.65
72.76
64.62
55.77
46.55
37.22
28.15
19.88
13.00
7.87
4.46
2.22
0.31
-2.06
-5.20
-8.73
-11.61
-12.59
-10.74
-5.90
1.29
9.55
17.53
24.26
29.34
32.82
34.97
35.94
35.71
34.06
30.72
25.45
18.14
8.89
-1.84
-13.13
-23.78
-32.67
-39.25
-43.79
-47.19
-50.43
-53.91
-57.18
-59.10
-58.49
-54.74
-48.09
-39.34
-29.37
-18.70
-7.39
4.66
17.27
29.73
40.89
49.53
54.83
56.64
55.48
52.21
47.67
42.21
35.55
26.95
15.67
1.55
-14.69
-31.64
-47.63
-61.35
-72.19
-80.22
-85.84
-89.54
-91.72
-92.79
-93.31
-93.92
-95.09
-96.92
-98.97
-100.52
-100.97
-100.12
-98.24
-95.90
-93.61
-91.68
-90.14
-88.84
-87.65
-86.46
-85.23
-83.92
-82.45
-80.73
-78.77
-76.72
-74.83
-73.28
-72.01
-70.53
-68.07
-63.82
-57.30
-48.59
-38.39
-27.70
-17.55
-8.61
-1.14
4.94
9.83
13.74
16.87
19.39
21.50
23.41
25.20
26.90
28.55
30.34
32.70
36.22
41.50
48.80
57.89
67.93
77.68
85.76
91.04
92.96
91.65
87.94
83.08
78.37
74.75
72.61
71.77
71.74
72.00
72.33
72.87
73.97
75.95
78.87
82.40
85.89
88.62
90.05
89.93
88.36
85.58
81.82
77.17
71.55
64.87
57.17
48.70
39.86
31.03
22.42
14.07
5.83
-2.45
-10.79
-19.13
-27.31
-35.23
-42.91
-50.50
-58.23
-66.25
-74.51
-82.73
-90.32
-96.55
-100.76
-102.59
-102.10
-99.72
-96.09
-91.86
-87.42
-82.99
-78.57
-74.18
-69.83
-65.64
-61.75
-58.24
-55.05
-52.04
-48.94
-45.36
-40.86
-35.00
-27.52
-18.59
-8.99
-0.08
6.58
9.85
9.53
6.45
2.16
-1.83
-4.75
-6.89
-9.36
-13.49
-20.09
-29.16
-39.86
-50.85
-60.62
-67.76
-71.18
-70.28
-65.07
-56.27
-45.17
-33.33
-22.12
-12.36
-4.27
2.44
8.24
13.50
18.34
22.76
26.72
30.28
33.59
36.75
39.75
42.33
44.21
45.19
45.29
44.80
44.12
43.55
43.19
42.86
42.25
41.06
39.16
36.69
33.94
31.24
28.80
26.61
24.49
22.20
19.58
16.63
13.44
10.13
6.74
3.26
-0.40
-4.17
-7.90
-11.29
-14.04
-16.05
-17.44
-18.65
-20.20
-22.48
-25.47
-28.58
-30.74
-30.74
-27.70
-21.35
-12.12
-0.95
11.08
22.98
34.02
43.67
51.59
57.50
61.29
62.98
62.74
60.83
57.63
53.68
49.68
46.34
44.21
43.37
43.38
43.39
42.52
40.29
36.77
32.53
28.36
24.88
22.31
20.45
18.83
16.96
14.54
11.55
8.20
4.80
1.56
-1.45
-4.33
-7.20
-10.11
-12.98
-15.62
-17.79
-19.33
-20.24
-20.63
-20.76
-20.93
-21.48
-22.75
-25.02
-28.40
-32.75
-37.57
-41.96
-44.80
-44.97
-41.78
-35.15
-25.80
-15.01
-4.28
5.09
12.27
17.01
19.43
19.91
18.85
16.67
13.81
10.75
7.92
5.63
3.97
2.89
2.24
1.94
2.01
2.54
3.53
4.86
6.24
7.33
7.89
7.82
7.20
6.21
5.06
3.96
2.98
2.10
1.15
-0.15
-2.05
-4.66
-7.86
-11.27
-14.36
-16.70
-18.03
-18.44
-18.30
-18.18
-18.70
-20.42
-23.59
-27.97
-32.72
-36.47
-37.64
-34.93
-27.85
-16.89
-3.48
10.52
23.36
33.82
41.39
46.11
48.37
48.62
47.34
45.05
42.37
39.97
38.37
37.67
37.50
37.14
35.81
33.08
29.05
24.32
19.65
15.65
12.52
10.11
8.03
5.97
3.75
1.40
-0.97
-3.26
-5.45
-7.66
-10.08
-12.89
-16.17
-19.79
-23.43
-26.70
-29.31
-31.18
-32.54
-33.82
-35.54
-38.09
-41.54
-45.56
-49.33
-51.68
-51.41
-47.65
-40.24
-29.87
-17.84
-5.68
5.28
14.21
20.87
25.39
28.11
29.38
29.48
28.66
27.17
25.24
23.11
20.98
19.02
17.39
16.22
15.58
15.44
15.62
15.85
15.78
15.18
13.92
12.07
9.84
7.40
4.86
2.19
-0.69
-3.80
-7.04
-10.17
-12.95
-15.22
-17.00
-18.39
-19.55
-20.55
-21.45
-22.33
-23.30
-24.46
-25.68
-26.58
-26.49
-24.71
-20.78
-14.75
-7.22
0.87
8.57
15.16
20.31
24.02
26.49
27.90
28.38
28.01
26.88
25.20
23.31
21.61
20.46
20.00
20.13
20.54
20.86
20.85
20.53
20.07
19.69
19.45
19.22
18.67
17.45
15.36
12.41
8.85
5.04
1.37
-1.93
-4.81
-7.41
-9.99
-12.84
-16.16
-19.99
-24.17
-28.25
-31.58
-33.34
-32.82
-29.60
-23.76
-15.91
-6.99
1.92
9.96
16.56
21.48
24.75
26.51
26.97
26.39
25.06
23.33
21.51
19.88
18.57
17.59
16.82
16.13
15.38
14.48
13.44
12.26
10.93
9.42
7.65
5.60
3.28
0.74
-1.96
-4.74
-7.52
-10.18
-12.53
-14.44
-15.85
-16.86
-17.75
-18.88
-20.49
-22.68
-25.23
-27.71
-29.56
-30.20
-29.13
-26.09
-21.03
-14.20
-6.15
2.40
10.59
17.64
23.00
26.38
27.82
27.57
26.05
23.63
20.71
17.61
14.65
12.11
10.16
8.83
7.96
7.31
6.62
5.75
4.75
3.72
2.77
1.89
0.95
-0.26
-1.91
-4.07
-6.66
-9.48
-12.30
-14.89
-17.11
-18.92
-20.47
-22.02
-23.91
-26.42
-29.63
-33.26
-36.70
-39.12
-39.66
-37.70
-33.09
-26.17
-17.74
-8.85
-0.50
6.61
12.16
16.21
18.98
20.66
21.32
20.98
19.75
17.94
16.15
14.97
14.76
15.47
16.63
17.62
17.93
17.40
16.20
14.71
13.23
11.88
10.54
8.98
7.02
4.56
1.68
-1.45
-4.63
-7.69
-10.49
-13.00
-15.24
-17.30
-19.33
-21.48
-23.92
-26.75
-29.89
-33.04
-35.59
-36.79
-35.87
-32.40
-26.44
-18.61
-9.93
-1.45
6.01
12.03
16.56
19.77
21.87
23.06
23.50
23.35
22.81
22.04
21.13
20.13
19.07
17.94
16.76
15.50
14.07
12.41
10.57
8.72
7.12
5.95
5.20
4.64
3.88
2.60
0.69
-1.73
-4.33
-6.78
-8.82
-10.35
-11.40
-12.06
-12.50
-12.96
-13.74
-15.11
-17.17
-19.73
-22.20
-23.72
-23.42
-20.71
-15.50
-8.33
-0.18
7.88
14.93
20.52
24.62
27.50
29.49
30.79
31.42
31.34
30.55
29.18
27.50
25.81
24.34
23.18
22.32
21.65
21.04
20.36
19.44
18.16
16.45
14.33
11.90
9.31
6.68
4.08
1.50
-1.10
-3.77
-6.55
-9.43
-12.34
-15.14
-17.71
-19.96
-21.91
-23.68
-25.48
-27.46
-29.71
-32.23
-34.85
-37.28
-39.03
-39.49
-38.07
-34.39
-28.50
-20.90
-12.52
-4.38
2.62
7.92
11.40
13.22
13.73
13.29
12.30
11.15
10.24
9.96
10.58
12.16
14.52
17.23
19.80
21.83
23.12
23.75
23.87
23.66
23.13
22.14
20.49
18.01
14.64
10.40
5.38
-0.30
-6.49
-12.93
-19.31
-25.23
-30.39
-34.62
-37.99
-40.75
-43.27
-45.90
-48.81
-51.97
-55.04
-57.47
-58.55
-57.59
-54.16
-48.32
-40.56
-31.74
-22.74
-14.28
-6.72
-0.09
5.75
10.87
15.27
18.87
21.67
23.74
25.15
25.97
26.28
26.27
26.13
26.07
26.28
26.92
27.90
28.83
29.23
28.73
27.40
25.43
23.13
20.84
18.95
17.54
16.29
14.64
12.04
8.29
3.33
-2.50
-8.18
-11.90
-11.76
-6.69
2.99
15.41
27.75
36.52
38.71
32.34
18.66
2.16
-11.71
-18.91
-19.65
-14.54
-4.89
7.33
19.83
30.53
38.06
40.93
38.66
31.87
22.23
11.35
0.43
-9.77
-18.68
-26.03
-31.86
-36.36
-39.77
-42.14
-43.64
-44.43
-44.50
-43.65
-41.75
-38.97
-35.61
-32.14
-28.86
-26.09
-24.03
-22.65
-21.69
-20.77
-19.65
-18.20
-16.49
-14.75
-13.30
-12.44
-12.32
-12.90
-14.02
-15.55
-17.40
-19.52
-21.83
-24.24
-26.66
-29.05
-31.42
-33.79
-36.12
-38.19
-39.50
-39.37
-37.10
-32.20
-24.58
-14.60
-3.03
9.17
21.02
31.68
40.53
47.25
51.77
54.26
55.10
54.67
53.33
51.28
48.61
45.38
41.78
38.09
34.69
31.91
29.98
28.98
28.86
29.47
30.56
31.82
32.85
33.26
32.75
31.13
28.45
24.93
20.93
16.85
13.09
9.88
7.34
5.46
4.08
2.95
1.68
-0.20
-3.04
-6.91
-11.48
-16.00
-19.62
-21.70
-22.13
-21.39
-20.34
-19.82
-20.36
-22.11
-24.84
-28.13
-31.48
-34.31
-36.01
-36.00
-33.93
-29.82
-24.09
-17.44
-10.65
-4.40
0.89
5.02
8.01
10.00
11.21
11.91
12.34
12.68
13.02
13.34
13.62
13.81
13.92
13.98
14.06
14.19
14.40
14.70
15.03
15.35
15.57
15.63
15.44
14.93
14.08
12.96
11.69
10.43
9.28
8.23
7.17
6.01
4.71
3.34
2.04
0.93
0.06
-0.63
-1.17
-1.55
-1.76
-1.78
-1.74
-1.85
-2.30
-3.22
-4.59
-6.33
-8.40
-10.77
-13.51
-16.69
-20.30
-24.21
-28.15
-31.68
-34.29
-35.45
-34.81
-32.25
-27.96
-22.37
-16.07
-9.62
-3.50
1.94
6.50
10.07
12.63
14.20
14.81
14.52
13.40
11.62
9.47
7.30
5.47
4.19
3.55
3.42
3.62
3.94
4.19
4.27
4.14
3.83
3.38
2.79
2.02
0.99
-0.35
-1.99
-3.82
-5.65
-7.31
-8.71
-9.87
-10.90
-11.91
-12.98
-14.10
-15.23
-16.36
-17.52
-18.85
-20.44
-22.34
-24.48
-26.71
-28.96
-31.25
-33.71
-36.43
-39.26
-41.71
-43.00
-42.34
-39.20
-33.58
-25.97
-17.20
-8.12
0.58
8.44
15.25
20.84
25.11
27.98
29.47
29.71
29.00
27.71
26.22
24.80
23.60
22.67
21.97
21.52
21.35
21.54
22.08
22.88
23.75
24.44
24.77
24.65
24.14
23.40
22.61
21.86
21.13
20.28
19.14
17.57
15.57
13.26
10.81
8.39
6.07
3.78
1.43
-1.07
-3.75
-6.58
-9.52
-12.49
-15.46
-18.38
-21.18
-23.88
-26.60
-29.57
-32.98
-36.78
-40.55
-43.48
-44.60
-43.13
-38.72
-31.57
-22.33
-11.84
-1.00
9.42
18.75
26.48
32.28
36.02
37.84
38.09
37.22
35.71
33.93
32.12
30.39
28.76
27.24
25.85
24.69
23.86
23.40
23.23
23.16
22.92
22.31
21.27
19.85
18.19
16.40
14.52
12.52
10.35
7.98
5.44
2.87
0.44
-1.67
-3.39
-4.79
-6.09
-7.59
-9.49
-11.76
-14.20
-16.51
-18.48
-20.15
-21.68
-23.30
-25.15
-27.29
-29.76
-32.58
-35.69
-38.79
-41.23
-42.04
-40.33
-35.57
-27.89
-18.07
-7.21
3.56
13.41
21.84
28.59
33.57
36.74
38.19
38.12
36.88
34.86
32.48
30.08
27.94
26.18
24.82
23.76
22.88
22.11
21.43
20.93
20.60
20.35
19.93
19.07
17.58
15.43
12.80
9.95
7.14
4.49
2.00
-0.43
-2.92
-5.60
-8.53
-11.65
-14.80
-17.79
-20.40
-22.54
-24.22
-25.64
-27.17
-29.21
-32.01
-35.54
-39.31
-42.35
-43.51
-41.75
-36.59
-28.32
-17.90
-6.65
4.20
13.79
21.72
27.88
32.28
34.93
35.87
35.26
33.45
30.94
28.26
25.80
23.76
22.14
20.85
19.77
18.84
18.05
17.45
17.08
16.92
16.82
16.53
15.78
14.36
12.22
9.53
6.64
3.94
1.69
-0.03
-1.35
-2.56
-3.97
-5.81
-8.13
-10.81
-13.58
-16.10
-18.18
-19.85
-21.32
-23.01
-25.29
-28.43
-32.39
-36.81
-40.93
-43.74
-44.14
-41.31
-34.99
-25.69
-14.55
-3.08
7.35
15.80
21.93
25.83
27.85
28.35
27.66
26.08
23.96
21.69
19.62
18.00
16.95
16.41
16.22
16.15
16.01
15.68
15.22
14.76
14.48
14.39
14.36
14.07
13.21
11.59
9.26
6.48
3.61
0.95
-1.34
-3.26
-4.95
-6.57
-8.27
-10.15
-12.21
-14.40
-16.61
-18.73
-20.70
-22.53
-24.28
-26.14
-28.32
-31.03
-34.29
-37.84
-41.01
-42.87
-42.47
-39.18
-32.96
-24.40
-14.54
-4.53
4.68
12.48
18.60
23.00
25.76
27.04
27.09
26.20
24.68
22.81
20.79
18.75
16.82
15.11
13.69
12.59
11.80
11.29
11.05
11.04
11.21
11.36
11.24
10.62
9.37
7.59
5.48
3.26
1.08
-1.05
-3.20
-5.44
-7.76
-10.06
-12.16
-13.94
-15.37
-16.56
-17.71
-19.07
-20.89
-23.28
-26.20
-29.33
-32.10
-33.78
-33.62
-31.11
-26.16
-19.21
-11.06
-2.72
4.97
11.50
16.70
20.66
23.52
25.36
26.21
26.09
25.14
23.59
21.78
19.99
18.43
17.17
16.20
15.44
14.83
14.33
13.95
13.67
13.49
13.32
12.99
12.33
11.19
9.55
7.51
5.27
3.08
1.06
-0.77
-2.56
-4.46
-6.63
-9.10
-11.83
-14.65
-17.36
-19.73
-21.65
-23.13
-24.33
-25.53
-27.09
-29.27
-32.08
-35.19
-37.91
-39.41
-38.88
-35.81
-30.21
-22.64
-14.09
-5.63
1.98
8.33
13.27
16.94
19.55
21.36
22.51
23.07
23.11
23.00
22.97
23.06
23.28
23.74
24.66
26.18
28.24
30.57
33.14
35.65
37.73
39.31
40.92
43.51
47.93
54.49
62.69
71.90
80.60
86.79
88.63
85.12
76.30
62.94
46.19
24.23
-1.42
-26.71
-47.42
-61.68
-70.00
-73.82
-74.29
-71.97
-66.95
-58.86
-48.10
-36.08
-24.82
-16.04
-10.45
-7.59
-6.00
-4.18
-0.66
4.73
10.76
15.54
17.59
16.59
13.36
9.38
6.10
4.41
4.31
5.08
5.94
6.55
7.10
7.95
8.97
11.15
14.13
16.98
18.75
18.88
17.45
15.05
12.30
9.59
7.00
4.23
1.10
-2.30
-5.71
-8.88
-11.77
-14.62
-17.73
-21.18
-24.86
-28.27
-30.86
-32.38
-33.05
-33.46
-34.30
-36.04
-38.75
-42.13
-45.42
-47.58
-47.52
-44.40
-37.90
-28.48
-17.23
-5.68
4.66
12.74
18.19
21.24
22.49
22.62
22.17
21.47
20.63
19.64
18.50
17.26
16.08
15.15
14.62
14.56
14.79
15.01
14.95
14.48
13.73
12.97
12.45
12.26
12.26
12.20
11.79
10.89
9.53
7.86
6.03
4.23
2.61
1.24
0.03
-1.40
-3.80
-8.00
-14.57
-23.44
-33.66
-43.74
-52.13
-57.92
-61.17
-62.87
-64.43
-66.98
-70.88
-75.52
-79.59
-81.60
-80.32
-75.15
-66.28
-54.59
-41.49
-28.61
-17.47
-9.01
-3.41
-0.04
2.26
4.62
7.62
11.08
14.11
15.57
14.65
11.23
6.02
0.33
-4.48
-7.38
-8.06
-6.76
-4.06
-0.40
3.93
8.85
14.19
19.60
24.53
28.51
31.30
32.93
33.42
32.48
29.39
23.30
13.52
-0.11
-17.33
-37.69
-60.70
-85.76
-111.88
-137.38
-159.95
-177.02
-186.40
-186.74
-177.85
-160.73
-137.32
-110.22
-82.29
-56.22
-34.19
-17.56
-6.71
-1.05
0.92
1.35
2.59
6.71
14.82
26.73
41.04
55.65
68.57
78.52
85.20
89.01
90.69
90.84
89.83
87.86
85.06
81.58
77.65
73.53
69.51
65.86
62.75
60.25
58.30
56.78
55.55
54.48
53.44
52.21
50.57
48.47
46.27
44.70
44.65
46.65
50.48
55.07
58.88
60.59
59.64
56.38
51.74
46.65
41.63
36.66
31.48
25.95
20.19
14.49
9.10
4.03
-0.95
-6.18
-11.91
-18.23
-25.09
-32.43
-40.27
-48.80
-58.22
-68.48
-79.03
-88.61
-95.39
-97.46
-93.52
-83.40
-68.29
-50.31
-31.90
-15.06
-0.98
10.03
18.14
23.72
27.08
28.47
28.26
26.99
25.43
24.39
24.50
26.02
28.72
31.93
34.78
36.50
36.69
35.47
33.38
31.19
29.55
28.75
28.59
28.49
27.74
25.80
22.57
18.37
13.73
9.04
4.38
-0.47
-5.76
-11.52
-17.50
-23.36
-28.86
-33.96
-38.62
-42.59
-45.35
-46.35
-45.49
-43.37
-41.32
-40.91
-43.29
-48.63
-55.96
-63.51
-69.24
-71.44
-69.14
-62.16
-51.09
-37.04
-21.33
-5.27
9.97
23.48
34.58
42.93
48.52
51.70
53.07
53.29
52.86
52.09
51.10
49.95
48.69
47.44
46.31
45.45
44.94
44.80
44.94
45.17
45.22
44.82
43.73
41.83
39.06
35.50
31.33
26.80
22.23
17.91
13.94
10.20
6.44
2.37
-2.13
-6.95
-11.87
-16.62
-21.07
-25.17
-28.93
-32.32
-35.37
-38.24
-41.30
-45.07
-49.90
-55.67
-61.61
-66.43
-68.63
-67.01
-61.09
-51.15
-38.16
-23.45
-8.44
5.69
18.05
28.17
35.88
41.30
44.75
46.62
47.30
47.17
46.50
45.53
44.48
43.50
42.67
42.01
41.43
40.85
40.19
39.47
38.77
38.16
37.62
36.99
36.00
34.36
31.89
28.60
24.67
20.40
16.06
11.83
7.78
3.88
0.05
-3.79
-7.69
-11.61
-15.48
-19.15
-22.52
-25.56
-28.34
-31.02
-33.79
-36.83
-40.36
-44.57
-49.54
-55.05
-60.36
-64.27
-65.37
-62.53
-55.37
-44.49
-31.24
-17.27
-3.97
7.83
17.82
26.03
32.49
37.18
40.06
41.23
40.97
39.76
38.02
36.15
34.40
32.85
31.57
30.54
29.75
29.20
28.87
28.74
28.77
28.87
28.87
28.53
27.66
26.18
24.09
21.50
18.49
15.13
11.49
7.67
3.84
0.16
-3.27
-6.53
-9.78
-13.22
-16.90
-20.70
-24.33
-27.53
-30.16
-32.27
-34.16
-36.21
-38.89
-42.53
-47.25
-52.75
-58.20
-62.42
-64.09
-62.21
-56.47
-47.32
-35.82
-23.27
-10.87
0.51
10.34
18.36
24.42
28.47
30.60
31.07
30.27
28.65
26.68
24.73
23.10
21.91
21.20
20.87
20.73
20.61
20.46
20.28
20.15
20.08
19.90
19.35
18.13
16.10
13.37
10.27
7.17
4.31
1.65
-1.07
-4.15
-7.80
-11.97
-16.43
-20.84
-24.93
-28.55
-31.73
-34.54
-37.17
-39.83
-42.84
-46.53
-51.09
-56.32
-61.47
-65.29
-66.41
-63.75
-57.01
-46.75
-34.23
-20.92
-8.13
3.28
12.93
20.66
26.45
30.39
32.66
33.59
33.68
33.41
33.16
33.08
33.08
32.91
32.33
31.26
29.86
28.49
27.57
27.38
27.91
28.83
29.63
29.84
29.21
27.73
25.62
23.12
20.44
17.70
14.92
12.05
8.98
5.53
1.58
-2.91
-7.80
-12.78
-17.51
-21.71
-25.36
-28.64
-31.99
-35.87
-40.66
-46.48
-53.00
-59.43
-64.61
-67.31
-66.57
-61.99
-53.82
-42.82
-29.96
-16.21
-2.41
10.72
22.48
32.19
39.32
43.63
45.31
44.91
43.24
41.09
39.22
38.14
38.08
38.94
40.28
41.49
41.92
41.16
39.23
36.88
35.36
35.91
39.02
43.98
48.86
51.22
49.32
43.01
34.17
25.53
19.07
14.85
11.03
5.04
-4.93
-18.96
-35.39
-51.25
-63.90
-72.15
-76.48
-78.23
-78.63
-78.31
-77.35
-75.52
-71.65
-64.33
-52.43
-35.34
-13.01
13.83
43.06
70.79
92.15
104.00
105.88
100.19
91.41
84.51
83.18
88.14
96.90
99.27
87.37
60.42
25.80
-6.85
-31.98
-49.62
-63.04
-75.56
-88.42
-100.17
-107.59
-108.69
-104.21
-96.99
-90.26
-86.10
-84.85
-85.41
-85.38
-82.16
-75.37
-66.63
-58.37
-52.47
-49.60
-49.32
-50.66
-52.24
-53.05
-53.12
-53.32
-54.76
-58.22
-63.87
-71.23
-79.25
-86.22
-90.17
-89.58
-83.69
-72.65
-57.42
-39.55
-20.81
-2.92
12.93
26.07
36.23
43.45
47.96
50.09
50.22
48.77
46.22
43.12
40.07
37.53
35.75
34.72
34.17
33.78
33.31
32.76
32.24
31.85
31.49
30.88
29.69
27.70
24.93
21.61
18.10
14.67
11.43
8.38
5.48
2.81
0.61
-0.80
-1.21
-0.63
0.55
1.68
1.99
0.83
-2.09
-6.48
-11.44
-15.62
-17.53
-16.01
-10.59
-1.66
9.63
21.75
33.20
42.88
50.23
55.19
58.02
59.10
58.80
57.46
55.33
52.70
49.93
47.45
45.66
44.74
44.59
44.82
44.95
44.59
43.66
42.32
40.83
39.33
37.80
36.02
33.73
30.77
27.14
22.97
18.47
13.85
9.29
4.96
0.98
-2.54
-5.55
-8.07
-10.24
-12.33
-14.71
-17.69
-21.29
-25.01
-27.92
-28.80
-26.66
-21.13
-12.70
-2.56
7.74
16.81
23.80
28.43
30.90
31.64
31.05
29.43
26.99
23.94
20.58
17.27
14.39
12.21
10.79
9.98
9.50
9.04
8.42
7.53
6.42
5.10
3.56
1.76
-0.41
-3.01
-6.08
-9.63
-13.62
-17.94
-22.37
-26.63
-30.41
-33.44
-35.57
-36.78
-37.23
-37.16
-36.89
-36.63
-36.43
-36.01
-34.77
-31.95
-26.87
-19.28
-9.52
1.53
12.65
22.69
30.82
36.69
40.35
42.15
42.49
41.71
40.11
37.87
35.17
32.16
29.06
26.11
23.58
21.68
20.46
19.77
19.34
18.89
18.19
17.19
15.91
14.45
12.84
11.02
8.92
6.47
3.60
0.37
-3.13
-6.73
-10.25
-13.50
-16.39
-18.90
-21.12
-23.23
-25.44
-27.98
-30.97
-34.33
-37.71
-40.39
-41.43
-39.95
-35.43
-28.00
-18.47
-8.08
1.83
10.21
16.54
20.80
23.31
24.51
24.75
24.27
23.23
21.75
19.98
18.14
16.45
15.10
14.18
13.68
13.50
13.47
13.41
13.19
12.70
11.90
10.81
9.45
7.88
6.13
4.21
2.11
-0.15
-2.57
-5.11
-7.73
-10.37
-12.96
-15.42
-17.68
-19.69
-21.46
-23.09
-24.81
-26.89
-29.56
-32.80
-36.22
-38.99
-40.10
-38.63
-34.19
-27.11
-18.32
-9.01
-0.31
7.07
12.86
17.11
19.99
21.68
22.32
22.09
21.20
19.91
18.54
17.30
16.37
15.75
15.33
14.99
14.62
14.21
13.82
13.55
13.40
13.24
12.78
11.76
10.06
7.77
5.17
2.59
0.28
-1.69
-3.39
-5.01
-6.70
-8.60
-10.68
-12.88
-15.05
-17.06
-18.82
-20.32
-21.64
-22.96
-24.48
-26.42
-28.83
-31.53
-34.03
-35.56
-35.29
-32.61
-27.41
-20.13
-11.69
-3.15
4.59
10.97
15.82
19.23
21.35
22.33
22.30
21.45
20.09
18.58
17.29
16.43
16.09
16.19
16.55
17.00
17.38
17.61
17.67
17.58
17.37
17.03
16.47
15.56
14.18
12.29
10.03
7.73
5.81
4.62
4.28
4.58
5.09
5.30
4.86
3.63
1.77
-0.46
-2.80
-5.12
-7.50
-10.06
-12.99
-16.43
-20.38
-24.81
-29.61
-34.57
-39.41
-43.63
-46.60
-47.62
-46.14
-41.90
-35.18
-26.65
-17.26
-8.00
0.39
7.48
13.17
17.56
20.80
23.04
24.36
24.87
24.70
24.11
23.35
22.67
22.17
21.84
21.57
21.28
20.94
20.60
20.27
19.92
19.43
18.69
17.66
16.39
15.00
13.60
12.17
10.62
8.81
6.64
4.10
1.26
-1.71
-4.61
-7.23
-9.38
-10.97
-12.02
-12.70
-13.28
-14.05
-15.20
-16.79
-18.73
-20.80
-22.73
-24.25
-25.26
-25.83
-26.25
-26.88
-28.06
-29.96
-32.49
-35.38
-38.11
-40.05
-40.54
-39.02
-35.17
-29.10
-21.35
-12.82
-4.49
2.82
8.67
13.01
16.02
17.97
19.09
19.56
19.56
19.23
18.74
18.18
17.58
16.91
16.12
15.19
14.18
13.13
12.12
11.16
10.26
9.35
8.30
6.95
5.15
2.82
0.04
-2.99
-6.03
-8.81
-11.13
-12.81
-13.73
-13.87
-13.37
-12.55
-11.85
-11.68
-12.26
-13.56
-15.29
-17.12
-18.80
-20.29
-21.70
-23.12
-24.54
-25.84
-26.85
-27.51
-27.89
-28.18
-28.60
-29.31
-30.42
-31.92
-33.70
-35.49
-36.77
-36.88
-35.09
-30.93
-24.36
-15.88
-6.39
3.10
11.78
19.23
25.40
30.39
34.35
37.30
39.23
40.12
40.05
39.29
38.15
36.94
35.81
34.75
33.65
32.44
31.13
29.88
28.82
28.03
27.38
26.65
25.58
24.02
21.96
19.52
16.86
14.15
11.50
8.97
6.60
4.41
2.36
0.39
-1.55
-3.47
-5.34
-7.12
-8.73
-10.11
-11.25
-12.15
-12.88
-13.53
-14.23
-15.05
-16.03
-17.08
-18.12
-19.07
-19.97
-20.96
-22.23
-23.94
-26.08
-28.50
-30.76
-32.25
-32.24
-30.16
-25.69
-19.04
-10.87
-2.13
6.16
13.23
18.66
22.42
24.69
25.78
26.00
25.60
24.80
23.80
22.77
21.86
21.15
20.65
20.27
19.84
19.16
18.14
16.83
15.40
14.11
13.15
12.51
11.97
11.19
9.88
7.95
5.51
2.84
0.26
-2.03
-3.98
-5.69
-7.26
-8.77
-10.17
-11.41
-12.47
-13.41
-14.39
-15.55
-16.96
-18.58
-20.23
-21.68
-22.76
-23.38
-23.64
-23.71
-23.77
-23.95
-24.28
-24.85
-25.77
-27.22
-29.32
-31.89
-34.29
-35.62
-34.93
-31.70
-26.05
-18.73
-10.79
-3.20
3.42
8.84
13.07
16.20
18.29
19.34
19.47
18.91
17.99
17.07
16.39
16.09
16.12
16.40
16.83
17.32
17.84
18.42
19.08
19.80
20.48
20.96
21.09
20.80
20.12
19.19
18.16
17.12
16.04
14.80
13.28
11.43
9.35
7.21
5.21
3.47
1.98
0.59
-0.93
-2.72
-4.80
-7.08
-9.39
-11.56
-13.50
-15.23
-16.80
-18.32
-19.94
-21.86
-24.24
-27.11
-30.23
-32.98
-34.48
-33.89
-30.70
-25.09
-17.79
-9.93
-2.55
3.66
8.43
11.86
14.17
15.61
16.39
16.69
16.73
16.71
16.76
16.93
17.15
17.32
17.36
17.26
17.10
17.02
17.10
17.35
17.70
17.95
17.89
17.37
16.34
14.86
13.09
11.17
9.24
7.40
5.70
4.12
2.64
1.18
-0.31
-1.85
-3.36
-4.75
-5.93
-6.91
-7.85
-8.95
-10.32
-11.95
-13.67
-15.24
-16.51
-17.53
-18.49
-19.67
-21.28
-23.39
-25.85
-28.30
-30.20
-30.94
-29.96
-26.94
-21.97
-15.52
-8.36
-1.32
4.91
9.96
13.75
16.42
18.21
19.32
19.89
19.96
19.61
18.90
17.98
17.05
16.27
15.78
15.58
15.59
15.71
15.85
16.01
16.20
16.39
16.49
16.36
15.86
14.90
13.51
11.79
9.89
7.95
6.08
4.32
2.66
1.04
-0.59
-2.21
-3.76
-5.08
-6.07
-6.72
-7.21
-7.78
-8.70
-10.08
-11.81
-13.67
-15.38
-16.76
-17.80
-18.62
-19.40
-20.35
-21.61
-23.27
-25.33
-27.54
-29.45
-30.41
-29.74
-27.03
-22.30
-16.02
-9.02
-2.16
3.84
8.63
12.15
14.52
15.97
16.70
16.91
16.77
16.46
16.11
15.82
15.60
15.39
15.17
14.89
14.55
14.22
13.90
13.61
13.31
12.95
12.44
11.77
10.93
9.94
8.82
7.58
6.25
4.84
3.40
1.97
0.59
-0.73
-2.00
-3.28
-4.58
-5.94
-7.36
-8.83
-10.35
-11.86
-13.33
-14.70
-15.92
-17.03
-18.05
-19.04
-20.07
-21.23
-22.63
-24.31
-26.18
-27.94
-29.07
-28.92
-26.97
-23.01
-17.27
-10.45
-3.42
2.98
8.18
12.05
14.71
16.44
17.45
17.84
17.62
16.87
15.78
14.67
13.88
13.61
13.86
14.44
15.06
15.45
15.47
15.13
14.53
13.84
13.17
12.51
11.77
10.81
9.55
8.00
6.29
4.56
2.92
1.37
-0.17
-1.78
-3.48
-5.22
-6.95
-8.63
-10.25
-11.85
-13.39
-14.82
-16.04
-17.06
-17.97
-18.97
-20.31
-22.14
-24.50
-27.18
-29.77
-31.65
-32.19
-30.85
-27.37
-21.94
-15.11
-7.75
-0.72
5.33
10.11
13.66
16.25
18.14
19.50
20.35
20.66
20.47
19.88
19.12
18.39
17.80
17.37
17.01
16.63
16.19
15.74
15.38
15.14
14.98
14.72
14.19
13.25
11.93
10.37
8.72
7.02
5.22
3.23
0.98
-1.42
-3.79
-5.87
-7.57
-8.97
-10.30
-11.78
-13.49
-15.38
-17.27
-19.03
-20.54
-21.81
-22.93
-24.01
-25.19
-26.62
-28.47
-30.73
-33.17
-35.24
-36.21
-35.31
-32.12
-26.69
-19.62
-11.90
-4.55
1.63
6.25
9.35
11.19
12.09
12.27
11.84
10.91
9.65
8.32
7.25
6.64
6.53
6.82
7.31
7.90
8.57
9.42
10.51
11.85
13.30
14.61
15.52
15.79
15.33
14.19
12.55
10.66
8.76
6.98
5.33
3.69
1.91
-0.12
-2.39
-4.77
-7.12
-9.26
-11.11
-12.68
-14.06
-15.39
-16.87
-18.64
-20.73
-22.95
-24.88
-25.89
-25.33
-22.78
-18.17
-11.86
-4.53
3.04
10.21
16.59
22.02
26.49
30.04
32.68
34.39
35.23
35.30
34.80
33.92
32.84
31.64
30.37
28.97
27.44
25.76
24.04
22.39
20.94
19.76
18.77
17.81
16.68
15.24
13.44
11.37
9.20
7.12
5.28
3.73
2.39
1.09
-0.38
-2.19
-4.37
-6.84
-9.43
-11.95
-14.28
-16.38
-18.37
-20.42
-22.73
-25.44
-28.52
-31.69
-34.34
-35.71
-35.05
-31.96
-26.55
-19.45
-11.61
-3.94
2.92
8.73
13.53
17.52
20.84
23.54
25.64
27.17
28.21
28.91
29.38
29.66
29.71
29.38
28.53
27.08
25.07
22.70
20.23
17.91
15.86
13.99
12.14
10.11
7.83
5.38
2.95
0.76
-1.08
-2.55
-3.72
-4.73
-5.69
-6.68
-7.78
-9.06
-10.53
-12.19
-13.98
-15.75
-17.38
-18.79
-20.01
-21.20
-22.63
-24.49
-26.80
-29.25
-31.19
-31.86
-30.62
-27.23
-21.93
-15.37
-8.41
-1.81
3.86
8.32
11.50
13.48
14.44
14.63
14.30
13.69
12.97
12.23
11.53
10.89
10.33
9.87
9.46
9.07
8.65
8.26
7.99
7.98
8.26
8.72
9.08
9.07
8.48
7.29
5.66
3.85
2.06
0.42
-1.06
-2.45
-3.83
-5.22
-6.63
-8.05
-9.49
-10.92
-12.27
-13.44
-14.26
-14.62
-14.58
-14.38
-14.41
-15.05
-16.53
-18.78
-21.34
-23.47
-24.41
-23.53
-20.58
-15.76
-9.67
-3.09
3.21
8.67
13.01
16.19
18.31
19.54
20.03
19.90
19.33
18.50
17.63
16.84
16.22
15.72
15.29
14.92
14.60
14.39
14.31
14.34
14.40
14.35
14.07
13.45
12.45
11.07
9.38
7.51
5.64
3.94
2.53
1.39
0.36
-0.75
-2.11
-3.83
-5.88
-8.10
-10.29
-12.23
-13.78
-14.90
-15.66
-16.24
-16.86
-17.76
-19.14
-21.07
-23.46
-25.98
-28.08
-29.07
-28.33
-25.51
-20.74
-14.61
-8.00
-1.79
3.43
7.44
10.35
12.39
13.76
14.54
14.74
14.43
13.80
13.15
12.73
12.63
12.77
12.92
12.90
12.66
12.30
12.02
11.97
12.14
12.34
12.29
11.81
10.83
9.49
7.98
6.44
4.93
3.41
1.82
0.20
-1.29
-2.49
-3.35
-3.97
-4.59
-5.48
-6.75
-8.32
-9.94
-11.29
-12.16
-12.55
-12.60
-12.60
-12.83
-13.50
-14.69
-16.36
-18.32
-20.28
-21.84
-22.51
-21.84
-19.53
-15.60
-10.40
-4.53
1.29
6.47
10.64
13.65
15.61
16.65
16.95
16.65
15.85
14.70
13.35
11.98
10.78
9.86
9.30
9.05
9.02
9.08
9.11
9.04
8.88
8.69
8.51
8.36
8.13
7.65
6.72
5.27
3.38
1.30
-0.67
-2.30
-3.53
-4.50
-5.44
-6.58
-8.02
-9.75
-11.67
-13.62
-15.48
-17.10
-18.43
-19.49
-20.42
-21.42
-22.68
-24.28
-26.13
-27.95
-29.32
-29.78
-28.95
-26.61
-22.79
-17.78
-12.05
-6.18
-0.70
4.04
7.84
10.67
12.57
13.59
13.83
13.37
12.38
11.05
9.63
8.34
7.35
6.74
6.55
6.71
7.10
7.61
8.11
8.49
8.66
8.53
8.04
7.21
6.07
4.76
3.40
2.03
0.66
-0.82
-2.50
-4.44
-6.59
-8.81
-10.92
-12.80
-14.41
-15.78
-16.96
-18.03
-19.10
-20.32
-21.85
-23.77
-25.91
-27.82
-28.81
-28.20
-25.60
-21.07
-15.15
-8.63
-2.30
3.33
8.04
11.84
14.84
17.11
18.65
19.44
19.53
19.06
18.26
17.37
16.61
16.04
15.60
15.17
14.66
14.04
13.41
12.89
12.51
12.24
11.91
11.32
10.31
8.82
6.93
4.85
2.78
0.88
-0.84
-2.50
-4.32
-6.49
-9.10
-12.04
-15.08
-17.98
-20.56
-22.78
-24.70
-26.46
-28.26
-30.33
-32.92
-36.19
-40.02
-43.91
-47.00
-48.28
-46.93
-42.69
-35.87
-27.36
-18.23
-9.46
-1.74
4.59
9.45
12.93
15.17
16.29
16.52
16.14
15.51
15.05
15.08
15.80
17.15
18.88
20.61
21.98
22.80
23.10
23.04
22.81
22.49
21.99
21.12
19.70
17.66
15.09
12.27
9.51
7.04
4.92
3.05
1.24
-0.71
-2.88
-5.21
-7.55
-9.68
-11.50
-12.99
-14.26
-15.46
-16.78
-18.36
-20.30
-22.71
-25.57
-28.68
-31.52
-33.35
-33.26
-30.54
-24.93
-16.78
-6.98
3.34
13.18
21.91
29.25
35.18
39.77
43.00
44.80
45.18
44.29
42.50
40.28
38.06
36.14
34.59
33.30
32.11
30.85
29.44
27.88
26.19
24.39
22.47
20.38
18.14
15.79
13.39
11.01
8.69
6.39
4.09
1.74
-0.71
-3.29
-6.08
-9.11
-12.37
-15.75
-19.03
-21.92
-24.17
-25.65
-26.42
-26.72
-26.87
-27.21
-27.99
-29.29
-30.92
-32.44
-33.16
-32.27
-29.12
-23.45
-15.53
-6.13
3.69
12.92
20.85
27.18
31.93
35.24
37.29
38.20
38.07
37.05
35.38
33.39
31.40
29.63
28.18
26.95
25.76
24.46
22.98
21.37
19.80
18.44
17.36
16.46
15.50
14.24
12.50
10.31
7.85
5.38
3.12
1.20
-0.39
-1.78
-3.13
-4.62
-6.37
-8.45
-10.87
-13.51
-16.18
-18.63
-20.70
-22.35
-23.71
-25.10
-26.82
-29.11
-31.88
-34.77
-37.09
-38.02
-36.81
-33.04
-26.80
-18.74
-9.86
-1.25
6.23
12.14
16.42
19.30
21.06
21.95
22.14
21.77
20.99
19.96
18.84
17.76
16.78
15.95
15.27
14.72
14.25
13.82
13.43
13.10
12.86
12.70
12.50
12.03
11.09
9.58
7.59
5.35
3.17
1.26
-0.33
-1.76
-3.25
-5.02
-7.16
-9.61
-12.20
-14.69
-16.88
-18.64
-19.96
-20.93
-21.76
-22.67
-23.87
-25.50
-27.49
-29.58
-31.24
-31.83
-30.75
-27.65
-22.61
-16.11
-8.96
-1.98
4.19
9.25
13.14
15.96
17.83
18.84
19.06
18.61
17.70
16.56
15.43
14.43
13.59
12.83
12.08
11.29
10.49
9.80
9.32
9.09
9.07
9.09
8.92
8.36
7.30
5.77
3.92
1.98
0.16
-1.36
-2.55
-3.49
-4.36
-5.39
-6.78
-8.55
-10.61
-12.74
-14.69
-16.28
-17.48
-18.37
-19.13
-19.98
-21.12
-22.65
-24.53
-26.51
-28.15
-28.81
-27.89
-25.06
-20.36
-14.31
-7.68
-1.28
4.31
8.81
12.24
14.74
16.44
17.45
17.77
17.47
16.66
15.51
14.24
13.03
12.01
11.21
10.63
10.19
9.84
9.55
9.32
9.19
9.16
9.12
8.91
8.35
7.34
5.85
4.01
2.00
-0.04
-1.98
-3.74
-5.31
-6.72
-8.07
-9.46
-10.98
-12.58
-14.15
-15.57
-16.74
-17.69
-18.60
-19.64
-21.01
-22.81
-25.07
-27.69
-30.39
-32.63
-33.76
-33.14
-30.37
-25.54
-19.18
-12.09
-5.08
1.26
6.63
10.94
14.21
16.50
17.84
18.31
18.10
17.45
16.66
15.96
15.44
15.08
14.75
14.27
13.52
12.53
11.42
10.39
9.61
9.12
8.84
8.58
8.16
7.43
6.35
4.96
3.34
1.60
-0.16
-1.89
-3.58
-5.32
-7.19
-9.28
-11.58
-13.97
-16.27
-18.33
-20.07
-21.57
-23.02
-24.67
-26.77
-29.46
-32.63
-35.88
-38.44
-39.36
-37.79
-33.28
-26.04
-16.88
-6.97
2.57
10.97
17.86
23.20
27.06
29.50
30.53
30.28
29.06
27.31
25.49
23.95
22.79
21.91
21.14
20.31
19.42
18.53
17.81
17.36
17.18
17.11
16.86
16.13
14.71
12.63
10.15
7.60
5.26
3.19
1.23
-0.94
-3.57
-6.73
-10.24
-13.78
-17.01
-19.73
-21.92
-23.71
-25.36
-27.11
-29.23
-31.85
-34.94
-38.16
-40.79
-41.86
-40.40
-35.78
-28.05
-17.98
-6.84
3.99
13.39
20.82
26.21
29.75
31.70
32.25
31.58
29.98
27.87
25.78
24.13
23.12
22.65
22.43
22.15
21.68
21.07
20.50
20.15
20.02
19.92
19.57
18.65
17.01
14.71
11.98
9.14
6.44
3.96
1.56
-0.99
-3.86
-7.04
-10.32
-13.37
-15.87
-17.76
-19.14
-20.33
-21.62
-23.30
-25.52
-28.39
-31.76
-35.16
-37.75
-38.46
-36.30
-30.79
-22.24
-11.72
-0.73
9.31
17.47
23.45
27.40
29.73
30.78
30.77
29.83
28.13
25.95
23.65
21.61
20.12
19.25
18.88
18.71
18.49
18.12
17.68
17.36
17.30
17.43
17.44
16.96
15.72
13.71
11.20
8.57
6.15
4.03
2.10
0.09
-2.22
-4.93
-7.93
-10.97
-13.78
-16.17
-18.08
-19.60
-20.90
-22.20
-23.75
-25.79
-28.43
-31.55
-34.70
-37.06
-37.63
-35.56
-30.47
-22.70
-13.20
-3.27
5.86
13.37
18.93
22.65
24.84
25.80
25.77
24.90
23.36
21.37
19.21
17.25
15.76
14.84
14.43
14.28
14.15
13.91
13.59
13.35
13.34
13.54
13.74
13.57
12.68
10.93
8.47
5.66
2.98
0.78
-0.88
-2.18
-3.49
-5.10
-7.11
-9.39
-11.62
-13.55
-15.05
-16.21
-17.25
-18.38
-19.73
-21.39
-23.38
-25.76
-28.45
-31.19
-33.36
-34.13
-32.67
-28.52
-21.87
-13.46
-4.43
4.13
11.47
17.25
21.50
24.38
26.05
26.58
26.08
24.71
22.73
20.49
18.33
16.49
15.10
14.15
13.55
13.18
12.97
12.87
12.87
12.92
12.96
12.84
12.40
11.54
10.23
8.49
6.44
4.23
2.04
-0.02
-1.87
-3.53
-5.10
-6.75
-8.57
-10.59
-12.69
-14.69
-16.42
-17.79
-18.83
-19.66
-20.48
-21.48
-22.92
-24.96
-27.66
-30.83
-33.98
-36.31
-36.92
-35.05
-30.38
-23.25
-14.51
-5.38
3.02
9.92
15.04
18.55
20.82
22.22
22.96
23.10
22.68
21.79
20.61
19.41
18.40
17.67
17.17
16.78
16.41
16.01
15.64
15.39
15.30
15.28
15.13
14.61
13.56
11.96
9.92
7.67
5.45
3.45
1.76
0.31
-1.02
-2.37
-3.86
-5.50
-7.27
-9.09
-10.91
-12.69
-14.38
-15.95
-17.35
-18.56
-19.58
-20.46
-21.32
-22.29
-23.53
-25.19
-27.35
-29.97
-32.75
-35.07
-36.13
-35.12
-31.57
-25.54
-17.63
-8.83
-0.22
7.35
13.41
17.83
20.74
22.41
23.10
23.10
22.62
21.88
21.06
20.30
19.68
19.20
18.79
18.32
17.69
16.89
16.04
15.30
14.83
14.67
14.69
14.66
14.31
13.50
12.18
10.46
8.48
6.41
4.37
2.39
0.46
-1.45
-3.36
-5.21
-6.91
-8.38
-9.61
-10.71
-11.84
-13.17
-14.80
-16.67
-18.62
-20.43
-21.91
-23.00
-23.80
-24.55
-25.59
-27.23
-29.61
-32.64
-35.80
-38.29
-39.20
-37.74
-33.61
-27.05
-18.83
-9.97
-1.50
5.89
11.85
16.41
19.76
22.11
23.62
24.38
24.51
24.16
23.51
22.76
22.04
21.45
21.01
20.68
20.47
20.27
20.01
19.63
19.07
18.39
17.66
16.90
16.05
14.96
13.46
11.49
9.14
6.62
4.16
1.90
-0.14
-2.02
-3.80
-5.50
-7.14
-8.79
-10.58
-12.60
-14.81
-17.04
-19.05
-20.67
-21.91
-22.97
-24.17
-25.78
-27.92
-30.50
-33.29
-35.82
-37.45
-37.48
-35.28
-30.54
-23.47
-14.80
-5.56
3.18
10.66
16.56
20.92
23.95
25.88
26.87
26.99
26.34
25.06
23.40
21.64
20.04
18.78
17.96
17.51
17.31
17.23
17.20
17.18
17.16
17.10
16.89
16.36
15.37
13.86
11.88
9.56
7.07
4.56
2.14
-0.11
-2.13
-3.93
-5.56
-7.16
-8.87
-10.75
-12.78
-14.77
-16.54
-17.95
-19.04
-19.97
-21.01
-22.45
-24.47
-27.09
-30.09
-32.94
-34.88
-35.04
-32.77
-27.81
-20.50
-11.67
-2.41
6.29
13.69
19.44
23.52
26.06
27.28
27.43
26.77
25.63
24.29
23.02
21.97
21.20
20.60
20.03
19.33
18.41
17.34
16.23
15.29
14.65
14.32
14.17
13.94
13.37
12.25
10.49
8.16
5.50
2.79
0.31
-1.77
-3.45
-4.90
-6.36
-8.07
-10.14
-12.52
-14.98
-17.25
-19.14
-20.56
-21.60
-22.48
-23.49
-24.91
-26.95
-29.69
-32.94
-36.20
-38.67
-39.44
-37.77
-33.34
-26.51
-18.15
-9.43
-1.39
5.27
10.32
13.87
16.13
17.31
17.53
16.85
15.39
13.33
10.99
8.69
6.76
5.45
4.94
5.26
6.29
7.80
9.51
11.14
12.52
13.58
14.33
14.80
15.00
14.95
14.65
14.22
13.82
13.64
13.82
14.35
15.04
15.61
15.83
15.61
14.98
14.04
12.93
11.68
10.22
8.39
6.00
2.85
-1.20
-6.16
-11.80
-17.55
-22.51
-25.68
-26.19
-23.70
-18.52
-11.55
-3.98
3.06
8.81
12.97
15.60
16.96
17.33
16.94
15.97
14.61
13.08
11.57
10.26
9.26
8.62
8.31
8.29
8.50
8.89
9.42
10.07
10.87
11.78
12.67
13.32
13.43
12.69
11.01
8.50
5.52
2.53
-0.05
-2.08
-3.63
-4.93
-6.25
-7.74
-9.42
-11.26
-13.23
-15.30
-17.49
-19.79
-22.15
-24.57
-27.08
-29.83
-33.05
-36.83
-41.00
-45.04
-48.10
-49.26
-47.81
-43.48
-36.63
-28.06
-18.84
-9.93
-2.07
4.40
9.39
13.02
15.44
16.86
17.48
17.57
17.36
17.07
16.84
16.69
16.55
16.33
15.93
15.33
14.60
13.86
13.27
12.93
12.88
13.03
13.16
13.02
12.44
11.37
9.93
8.32
6.73
5.27
3.96
2.77
1.63
0.48
-0.74
-2.09
-3.56
-5.07
-6.51
-7.73
-8.64
-9.26
-9.72
-10.18
-10.81
-11.78
-13.18
-15.03
-17.16
-19.16
-20.39
-20.15
-17.87
-13.42
-7.16
0.18
7.68
14.53
20.21
24.52
27.51
29.39
30.37
30.68
30.46
29.87
29.02
28.01
26.96
25.95
25.05
24.27
23.59
22.94
22.27
21.55
20.74
19.78
18.61
17.18
15.50
13.63
11.67
9.70
7.72
5.73
3.70
1.66
-0.34
-2.24
-4.06
-5.84
-7.64
-9.44
-11.17
-12.75
-14.16
-15.47
-16.86
-18.44
-20.21
-22.05
-23.76
-25.22
-26.48
-27.74
-29.27
-31.22
-33.48
-35.62
-37.00
-36.91
-34.87
-30.80
-25.10
-18.48
-11.79
-5.77
-0.88
2.75
5.21
6.74
7.59
7.99
8.12
8.09
8.00
7.90
7.83
7.77
7.73
7.67
7.60
7.60
7.82
8.40
9.37
10.63
11.90
12.88
13.35
13.27
12.79
12.09
11.33
10.55
9.69
8.65
7.40
5.98
4.50
3.08
1.80
0.65
-0.42
-1.52
-2.74
-4.10
-5.54
-6.97
-8.28
-9.46
-10.55
-11.69
-12.99
-14.57
-16.47
-18.63
-20.82
-22.65
-23.65
-23.34
-21.44
-17.96
-13.21
-7.77
-2.27
2.73
6.90
10.04
12.10
13.08
13.03
12.05
10.38
8.35
6.34
4.68
3.55
2.90
2.56
2.31
2.03
1.76
1.62
1.77
2.26
3.03
3.86
4.52
4.77
4.45
3.55
2.13
0.36
-1.55
-3.42
-5.21
-7.01
-8.98
-11.20
-13.59
-15.91
-17.86
-19.22
-20.03
-20.62
-21.46
-22.91
-24.96
-27.30
-29.44
-31.07
-32.08
-32.75
-33.52
-34.75
-36.30
-37.49
-37.24
-34.47
-28.63
-19.66
-8.25
4.26
16.11
25.57
31.33
32.78
30.25
24.74
19.10
16.79
20.57
30.51
43.51
54.97
60.96
60.65
54.77
45.38
34.93
25.41
18.24
14.07
12.50
12.61
13.54
14.57
15.51
16.26
16.40
15.00
11.03
3.54
-7.76
-20.74
-32.96
-42.13
-47.15
-48.26
-46.47
-42.80
-38.35
-33.96
-30.07
-26.88
-24.01
-20.58
-15.52
-9.24
-1.15
8.27
17.94
26.58
33.19
37.46
39.85
41.19
42.15
43.10
43.67
43.20
41.26
37.73
32.97
27.58
22.07
16.54
10.77
4.27
-3.18
-11.25
-19.32
-26.84
-33.71
-40.10
-46.07
-51.06
-53.93
-53.27
-48.13
-38.62
-26.11
-12.82
-0.99
7.80
13.04
15.09
14.82
13.09
10.49
7.26
3.51
-0.52
-4.23
-6.74
-7.29
-5.70
-2.56
0.84
3.07
3.18
1.02
-2.71
-6.88
-10.36
-12.42
-12.75
-11.42
-8.71
-4.91
-0.29
4.92
10.53
16.27
21.85
26.81
30.67
32.92
33.25
31.63
28.38
24.04
19.32
14.86
11.25
8.88
7.89
8.21
9.50
11.29
13.06
14.36
14.93
14.72
13.87
12.63
11.27
9.97
8.77
7.56
6.16
4.42
2.30
-0.16
-2.84
-5.61
-8.35
-11.00
-13.49
-15.75
-17.71
-19.38
-20.87
-22.39
-24.18
-26.48
-29.46
-33.22
-37.82
-43.19
-48.98
-54.47
-58.54
-59.96
-57.73
-51.54
-41.86
-29.88
-17.09
-4.82
6.05
15.11
22.33
27.82
31.72
34.13
35.17
35.01
33.94
32.33
30.58
28.95
27.60
26.51
25.54
24.60
23.70
22.99
22.65
22.74
23.11
23.46
23.50
23.09
22.32
21.44
20.67
20.02
19.27
17.90
15.50
12.02
7.79
3.39
-0.50
-3.37
-5.07
-5.85
-6.56
-8.07
-10.96
-15.48
-21.45
-28.17
-34.44
-38.88
-40.26
-38.46
-33.96
-28.01
-22.54
-19.79
-21.52
-28.16
-38.52
-49.79
-59.07
-63.45
-61.21
-52.49
-39.19
-24.06
-9.58
2.48
14.66
27.00
38.12
46.78
53.19
58.59
64.04
69.48
73.23
73.73
69.21
59.49
46.16
31.88
19.03
8.70
2.39
-0.20
-0.28
0.14
-0.32
-2.13
-5.12
-8.87
-12.86
-16.49
-19.38
-21.10
-21.67
-21.18
-19.86
-18.06
-16.19
-14.33
-12.16
-9.30
-5.38
-0.71
3.90
7.24
8.16
5.99
0.89
-6.09
-13.56
-19.99
-24.11
-25.03
-22.27
-15.87
-6.59
3.91
13.26
18.88
18.87
12.57
0.69
-15.07
-32.66
-50.20
-66.29
-79.91
-90.29
-96.88
-99.53
-98.64
-95.17
-90.02
-83.74
-76.51
-68.30
-59.07
-48.98
-38.38
-27.69
-17.33
-7.20
2.92
12.97
22.25
29.87
35.16
38.02
38.95
38.87
39.32
41.59
45.85
50.78
54.58
55.85
54.21
50.14
44.46
38.72
34.46
32.84
34.40
39.79
49.79
64.64
83.41
99.40
105.48
98.94
84.11
68.13
56.07
48.79
44.21
39.22
31.53
21.30
10.32
1.71
-4.76
-9.89
-14.36
-18.17
-20.82
-21.64
-19.68
-14.44
-6.53
2.08
9.34
12.91
11.97
7.15
0.19
-6.37
-10.08
-9.53
-4.92
2.44
10.53
17.23
20.71
19.89
14.96
7.28
-1.13
-8.35
-12.97
-14.43
-12.99
-9.70
-5.99
-3.17
-2.19
-3.29
-5.99
-9.06
-10.88
-9.93
-5.60
1.48
9.43
15.77
18.31
16.17
10.23
3.01
-2.20
-2.55
3.31
14.69
29.07
42.86
52.53
55.64
51.44
40.96
26.43
10.59
-4.16
-16.13
-24.45
-28.82
-29.36
-26.48
-20.95
-13.92
-6.84
-1.07
2.46
3.57
2.77
0.88
-1.31
-3.45
-5.62
-8.27
-11.86
-16.70
-22.82
-29.87
-37.33
-44.64
-51.48
-57.88
-64.20
-70.72
-77.27
-83.00
-86.49
-86.31
-81.61
-72.54
-60.24
-46.37
-32.52
-19.80
-8.68
0.77
8.67
15.02
19.79
22.91
24.49
24.83
24.47
23.99
23.87
24.33
25.17
26.01
26.42
26.22
25.56
24.87
24.60
25.05
26.16
27.63
29.05
29.96
30.02
28.98
26.74
23.38
19.18
14.51
9.81
5.41
1.52
-1.72
-4.18
-5.79
-6.63
-6.98
-7.41
-8.61
-11.11
-15.15
-20.45
-26.28
-31.48
-34.76
-34.87
-30.93
-22.77
-10.96
3.20
18.05
32.01
43.94
53.31
60.10
64.55
66.96
67.54
66.45
63.89
60.06
55.22
49.67
43.68
37.50
31.45
25.87
21.20
17.82
16.00
15.66
16.40
17.52
18.28
18.11
16.84
14.67
12.01
9.19
6.30
3.10
-0.77
-5.61
-11.54
-18.38
-25.77
-33.25
-40.29
-46.42
-51.29
-54.74
-56.97
-58.46
-59.92
-62.05
-65.22
-69.21
-73.15
-75.73
-75.57
-71.70
-63.96
-52.97
-40.00
-26.49
-13.69
-2.46
6.79
13.91
18.93
21.90
22.99
22.47
20.76
18.40
15.89
13.70
12.12
11.26
11.04
11.31
11.90
12.67
13.56
14.46
15.26
15.76
15.75
15.08
13.75
11.83
9.46
6.80
3.89
0.71
-2.81
-6.75
-11.09
-15.63
-20.02
-23.86
-26.83
-28.87
-30.21
-31.39
-33.00
-35.57
-39.35
-44.22
-49.61
-54.51
-57.63
-57.68
-53.83
-45.93
-34.71
-21.49
-7.88
4.75
15.54
24.14
30.53
34.92
37.51
38.56
38.32
37.11
35.21
32.91
30.39
27.83
25.39
23.32
21.87
21.29
21.66
22.80
24.31
25.58
26.12
25.58
23.96
21.43
18.30
14.81
11.12
7.32
3.50
-0.28
-3.99
-7.66
-11.30
-14.82
-17.99
-20.53
-22.21
-23.10
-23.59
-24.33
-26.00
-29.13
-33.87
-39.91
-46.50
-52.46
-56.46
-57.30
-54.29
-47.56
-38.01
-27.10
-16.32
-6.81
0.94
6.94
11.43
14.67
16.81
17.93
18.26
18.13
18.00
18.30
19.25
20.80
22.70
24.59
26.12
27.07
27.48
27.52
27.46
27.48
27.56
27.45
26.78
25.10
21.98
17.05
10.16
1.44
-8.59
-19.03
-28.81
-36.94
-42.78
-46.26
-47.71
-47.74
-46.90
-45.65
-44.34
-43.34
-43.13
-44.21
-46.96
-51.41
-57.00
-62.64
-66.80
-67.91
-64.80
-57.09
-45.31
-30.71
-14.90
0.59
14.62
26.44
35.69
42.11
45.55
46.05
43.94
39.95
35.07
30.32
26.51
24.14
23.33
23.92
25.52
27.61
29.61
31.06
31.73
31.62
30.96
29.96
28.61
26.66
23.76
19.69
14.59
9.05
3.88
-0.26
-3.13
-5.15
-7.21
-10.42
-15.54
-22.67
-31.18
-40.07
-48.47
-56.01
-62.86
-69.31
-75.50
-81.37
-86.86
-92.33
-98.43
-105.62
-113.45
-120.30
-123.84
-122.23
-115.13
-104.02
-91.51
-80.00
-70.73
-63.52
-57.49
-51.95
-46.86
-42.61
-39.32
-36.33
-32.36
-26.25
-17.65
-7.37
3.25
13.09
21.79
29.62
36.91
43.57
49.01
52.73
54.92
56.61
59.26
63.86
70.24
77.10
82.54
85.05
84.06
80.00
73.91
66.79
59.38
52.05
45.00
38.43
32.64
28.05
25.06
23.80
23.90
24.50
24.43
22.62
18.38
11.54
2.30
-8.87
-21.04
-32.76
-41.92
-46.28
-44.22
-35.53
-21.64
-5.10
11.40
26.09
38.49
49.00
58.20
66.23
72.58
76.53
77.67
76.18
72.77
68.38
63.86
59.71
55.98
52.44
48.74
44.69
40.42
36.34
32.97
30.66
29.39
28.79
28.32
27.52
26.19
24.39
22.32
20.17
18.05
15.91
13.62
11.03
8.02
4.53
0.69
-3.28
-7.07
-10.49
-13.51
-16.26
-19.01
-21.96
-25.17
-28.66
-32.44
-36.51
-40.76
-44.83
-47.92
-49.01
-47.06
-41.48
-32.35
-20.44
-6.96
6.77
19.70
31.10
40.60
48.02
53.24
56.25
57.13
56.11
53.65
50.29
46.64
43.17
40.21
37.90
36.21
35.03
34.22
33.65
33.23
32.88
32.52
32.00
31.16
29.80
27.80
25.18
22.11
18.82
15.56
12.43
9.34
6.12
2.58
-1.37
-5.62
-9.97
-14.14
-17.89
-21.07
-23.69
-25.90
-27.99
-30.35
-33.33
-37.06
-41.28
-45.27
-48.03
-48.54
-46.07
-40.45
-32.08
-21.74
-10.43
0.96
11.68
21.12
28.80
34.36
37.57
38.49
37.42
34.87
31.43
27.69
24.05
20.75
17.89
15.50
13.61
12.28
11.52
11.32
11.58
12.10
12.62
12.87
12.54
11.40
9.27
6.19
2.40
-1.67
-5.49
-8.61
-10.90
-12.56
-14.01
-15.73
-18.06
-21.03
-24.43
-27.89
-31.08
-33.80
-36.08
-38.15
-40.35
-43.03
-46.29
-49.88
-53.18
-55.29
-55.32
-52.62
-47.06
-38.96
-29.05
-18.19
-7.22
3.12
12.20
19.57
24.89
28.06
29.16
28.55
26.74
24.33
21.84
19.67
17.98
16.73
15.79
14.98
14.25
13.66
13.36
13.44
13.88
14.51
15.09
15.37
15.17
14.38
12.98
11.04
8.70
6.17
3.65
1.24
-1.10
-3.50
-6.11
-8.97
-11.99
-14.99
-17.78
-20.29
-22.53
-24.56
-26.42
-28.16
-29.89
-31.80
-34.17
-37.16
-40.63
-44.02
-46.41
-46.84
-44.63
-39.68
-32.47
-23.89
-14.86
-6.15
1.79
8.70
14.44
18.83
21.74
23.20
23.44
22.87
21.88
20.79
19.68
18.57
17.47
16.50
15.83
15.61
15.84
16.33
16.83
17.07
16.94
16.49
15.84
15.08
14.25
13.27
11.98
10.26
8.06
5.40
2.44
-0.65
-3.72
-6.66
-9.49
-12.28
-15.08
-17.89
-20.61
-23.13
-25.40
-27.45
-29.45
-31.59
-34.09
-37.11
-40.72
-44.85
-49.20
-53.24
-56.17
-57.11
-55.31
-50.42
-42.64
-32.68
-21.62
-10.56
-0.45
8.11
14.87
19.86
23.25
25.31
26.25
26.35
25.81
24.88
23.76
22.61
21.58
20.72
20.08
19.68
19.54
19.62
19.85
20.07
20.10
19.83
19.22
18.34
17.23
15.90
14.25
12.16
9.60
6.66
3.61
0.76
-1.68
-3.76
-5.77
-8.14
-11.18
-14.97
-19.21
-23.38
-26.97
-29.68
-31.58
-33.06
-34.59
-36.53
-38.96
-41.67
-44.27
-46.28
-47.10
-45.98
-42.10
-34.91
-24.61
-12.50
-0.86
7.88
12.26
12.61
10.89
9.54
10.15
12.66
15.66
17.45
17.37
16.10
15.23
16.15
19.10
23.11
26.43
27.54
25.67
20.91
13.83
5.06
-4.89
-15.49
-26.03
-35.55
-42.92
-47.26
-48.29
-46.62
-43.71
-41.22
-40.44
-41.64
-44.11
-46.53
-47.70
-47.02
-44.71
-41.44
-37.86
-34.40
-31.01
-27.42
-23.41
-18.91
-14.18
-9.59
-5.59
-2.54
-0.61
0.22
0.17
-0.40
-0.96
-0.85
0.69
4.39
10.73
19.73
30.78
42.80
54.48
64.64
72.56
78.06
81.44
83.20
83.96
84.07
83.55
82.16
79.68
76.08
71.63
66.79
62.11
58.23
55.56
54.22
53.95
54.29
54.74
54.91
54.52
53.40
51.83
50.12
48.39
46.65
44.93
43.40
42.41
42.15
42.65
44.54
47.92
52.00
55.48
57.25
56.95
55.19
52.98
51.17
51.98
56.36
63.24
70.17
74.88
76.29
75.30
73.37
72.03
75.26
85.27
101.20
119.57
136.37
148.42
155.09
156.77
155.01
155.91
164.31
180.83
201.36
219.35
228.15
224.30
206.48
154.20
63.75
-48.82
-155.92
-236.31
-280.43
-297.92
-296.49
-281.01
-254.93
-218.39
-174.67
-130.47
-93.51
-68.50
-56.00
-52.31
-53.91
-58.93
-64.17
-67.87
-69.74
-70.37
-70.15
-69.73
-69.83
-72.40
-79.28
-89.13
-99.41
-108.07
-114.62
-119.59
-123.79
-127.20
-129.16
-128.49
-123.32
-113.30
-100.46
-88.49
-80.90
-76.17
-71.68
-64.96
-54.72
-40.69
-23.55
-4.46
15.17
33.80
49.90
62.49
70.57
73.93
73.55
71.20
68.63
66.68
65.23
62.85
58.46
52.07
44.87
38.44
33.66
30.16
26.65
22.15
16.86
11.98
8.76
7.64
7.73
7.23
4.55
-1.03
-8.75
-16.81
-23.35
-27.48
-29.63
-31.18
-33.66
-38.01
-44.78
-53.60
-63.16
-71.33
-75.84
-74.98
-68.23
-56.48
-41.67
-26.85
-14.48
-5.53
0.79
5.82
10.28
13.85
15.64
15.11
11.57
5.22
-3.19
-12.68
-23.10
-35.34
-50.65
-69.62
-84.92
-89.49
-80.27
-60.22
-34.72
-8.19
16.68
38.24
55.47
67.95
74.49
76.05
73.97
70.38
67.14
64.94
63.19
60.61
56.15
48.56
38.42
26.79
15.37
5.40
-3.05
-10.84
-18.86
-27.28
-35.92
-43.85
-50.04
-53.35
-53.01
-48.74
-40.66
-29.07
-14.34
2.76
21.33
40.13
57.85
73.13
84.67
91.61
93.89
92.19
87.45
80.49
71.66
61.16
49.24
36.60
24.23
13.10
3.68
-4.22
-11.14
-17.48
-23.03
-27.07
-28.76
-27.80
-24.69
-20.54
-16.60
-13.76
-12.28
-11.94
-12.37
-13.27
-14.66
-16.69
-19.51
-23.07
-27.07
-31.13
-34.90
-38.17
-40.76
-42.56
-43.46
-43.55
-43.09
-42.56
-42.48
-43.24
-45.01
-47.61
-50.44
-52.49
-52.30
-48.29
-39.18
-24.76
-6.15
14.09
32.69
46.63
54.00
54.38
48.57
38.07
24.56
9.76
-4.71
-17.51
-27.86
-35.84
-42.45
-48.98
-56.12
-63.31
-68.72
-70.11
-66.14
-57.28
-45.78
-34.70
-26.52
-22.09
-20.66
-20.52
-20.10
-18.70
-16.49
-14.12
-12.14
-10.70
-9.62
-8.71
-8.09
-8.14
-9.37
-12.04
-16.04
-20.74
-25.33
-29.06
-31.62
-33.27
-34.85
-37.40
-41.71
-47.92
-55.25
-62.21
-67.04
-68.28
-65.19
-57.94
-47.42
-34.89
-21.64
-8.70
3.28
13.94
23.21
31.09
37.62
42.81
46.60
48.92
49.81
49.48
48.36
46.96
45.78
45.15
45.22
45.92
47.06
48.42
49.75
50.82
51.48
51.55
50.93
49.60
47.61
45.07
42.13
38.97
35.76
32.61
29.54
26.49
23.31
19.89
16.16
12.13
7.94
3.70
-0.47
-4.47
-8.22
-11.67
-14.81
-17.73
-20.74
-24.28
-28.73
-34.12
-39.94
-45.11
-48.24
-48.09
-43.99
-36.05
-25.08
-12.27
1.13
14.05
25.68
35.48
43.14
48.59
51.98
53.64
54.01
53.52
52.48
51.12
49.56
47.85
46.05
44.19
42.30
40.46
38.72
37.13
35.73
34.48
33.38
32.40
31.43
30.34
28.95
27.09
24.70
21.90
18.96
16.15
13.63
11.39
9.19
6.77
3.93
0.62
-3.06
-6.89
-10.66
-14.19
-17.35
-20.15
-22.71
-25.25
-28.05
-31.31
-35.05
-39.01
-42.60
-45.02
-45.41
-43.08
-37.81
-29.91
-20.17
-9.66
0.63
10.00
18.08
24.78
30.08
33.93
36.29
37.21
36.94
35.87
34.44
32.95
31.51
30.11
28.65
27.14
25.64
24.26
23.09
22.16
21.43
20.88
20.43
19.97
19.31
18.32
16.88
15.01
12.82
10.46
8.06
5.72
3.43
1.15
-1.20
-3.68
-6.32
-9.06
-11.82
-14.43
-16.72
-18.61
-20.12
-21.45
-22.89
-24.74
-27.23
-30.40
-34.00
-37.50
-40.16
-41.19
-40.00
-36.36
-30.49
-22.97
-14.64
-6.30
1.37
7.95
13.24
17.24
20.04
21.81
22.72
22.95
22.61
21.79
20.57
19.07
17.44
15.87
14.52
13.46
12.70
12.15
11.72
11.31
10.87
10.37
9.76
8.99
7.99
6.70
5.15
3.42
1.61
-0.14
-1.79
-3.38
-5.00
-6.78
-8.79
-10.98
-13.24
-15.44
-17.47
-19.34
-21.13
-22.94
-24.85
-26.84
-28.87
-30.91
-33.00
-35.12
-37.18
-38.83
-39.55
-38.74
-35.95
-31.10
-24.57
-17.11
-9.68
-3.16
1.92
5.40
7.50
8.66
9.30
9.71
9.96
9.94
9.52
8.63
7.36
5.96
4.75
4.06
4.08
4.89
6.35
8.23
10.11
11.49
11.91
11.18
9.47
7.39
5.65
4.64
4.00
2.52
-1.48
-9.39
-21.47
-36.47
-51.77
-64.27
-71.56
-72.78
-68.89
-62.12
-55.01
-49.46
-46.32
-45.47
-46.36
-48.38
-50.94
-53.25
-54.12
-52.20
-46.44
-36.71
-24.01
-10.28
2.38
12.37
19.07
22.85
24.67
25.65
26.68
28.26
30.49
33.20
36.11
39.03
41.91
44.87
48.02
51.32
54.53
57.30
59.32
60.51
61.02
61.15
61.11
60.85
60.06
58.26
55.14
50.73
45.49
40.16
35.48
31.88
29.27
27.20
24.97
21.96
17.62
11.65
3.97
-5.21
-15.27
-25.27
-34.06
-40.56
-44.00
-44.02
-40.66
-34.10
-24.66
-12.84
0.48
13.98
25.95
34.80
39.52
40.09
37.31
32.44
26.74
20.97
15.29
9.31
2.44
-5.86
-15.60
-25.96
-35.13
-40.65
-40.33
-33.38
-21.19
-7.25
4.16
9.60
7.93
0.50
-9.77
-19.96
-28.39
-34.98
-40.57
-45.99
-51.25
-55.61
-58.12
-58.31
-56.53
-53.76
-51.20
-49.71
-49.67
-50.88
-52.89
-55.17
-57.22
-58.45
-58.19
-55.68
-50.31
-41.74
-30.16
-16.28
-1.22
13.68
27.07
37.84
45.25
49.13
49.93
48.59
46.18
43.67
41.54
39.82
38.17
36.22
33.77
30.93
28.07
25.68
24.19
23.84
24.61
26.20
28.10
29.65
30.18
29.30
26.99
23.67
20.04
16.81
14.38
12.69
11.28
9.52
6.87
3.12
-1.65
-7.13
-12.93
-18.73
-24.31
-29.45
-33.86
-37.25
-39.41
-40.45
-40.91
-41.63
-43.44
-46.61
-50.57
-53.96
-55.09
-52.64
-46.16
-36.08
-23.31
-8.73
6.97
23.01
38.11
50.40
57.97
59.80
56.58
50.65
45.08
42.34
43.21
46.75
51.00
54.18
55.49
55.19
54.00
52.52
50.82
48.64
45.73
42.09
38.01
33.86
29.89
26.16
22.64
19.31
16.21
13.32
10.52
7.56
4.25
0.58
-3.23
-6.85
-10.06
-12.90
-15.73
-19.01
-23.12
-28.20
-34.06
-40.23
-46.04
-50.68
-53.35
-53.30
-50.08
-43.61
-34.31
-23.00
-10.74
1.38
12.41
21.62
28.61
33.28
35.78
36.45
35.72
34.05
31.81
29.31
26.74
24.23
21.80
19.45
17.18
15.02
13.05
11.41
10.17
9.31
8.67
8.00
7.01
5.56
3.68
1.56
-0.57
-2.54
-4.32
-6.07
-7.93
-10.08
-12.58
-15.43
-18.58
-21.96
-25.46
-28.91
-32.11
-34.84
-37.05
-38.88
-40.67
-42.87
-45.76
-49.27
-52.82
-55.42
-55.99
-53.66
-48.13
-39.70
-29.26
-17.93
-6.82
3.21
11.65
18.28
23.12
26.27
27.92
28.23
27.43
25.84
23.81
21.76
20.03
18.81
18.07
17.63
17.36
17.18
17.18
17.47
18.08
18.93
19.79
20.35
20.37
19.70
18.40
16.66
14.78
13.01
11.51
10.22
8.87
7.07
4.42
0.61
-4.42
-10.43
-16.83
-22.79
-27.40
-29.88
-29.92
-27.85
-24.74
-22.11
-21.54
-24.11
-29.97
-38.24
-47.25
-55.04
-59.98
-61.22
-58.79
-53.48
-46.42
-38.71
-31.19
-24.42
-18.71
-14.31
-11.30
-9.58
-8.77
-8.26
-7.41
-5.81
-3.50
-0.93
1.28
2.63
3.11
3.24
3.87
5.80
9.39
14.40
20.00
25.11
28.73
30.25
29.58
27.03
23.12
18.42
13.45
8.63
4.40
1.16
-0.82
-1.48
-1.04
0.03
1.16
1.85
1.74
0.63
-1.52
-4.68
-8.69
-13.24
-17.77
-21.58
-23.89
-24.10
-21.88
-17.28
-10.70
-2.73
5.92
14.64
22.83
29.94
35.44
39.00
40.55
40.35
38.95
36.99
34.91
32.88
30.75
28.35
25.80
23.45
21.72
20.83
20.52
20.27
19.57
18.24
16.63
15.49
15.44
16.51
18.06
19.02
18.57
16.44
12.97
9.03
5.65
3.53
2.65
2.38
1.71
0.05
-2.73
-6.36
-10.09
-12.83
-13.67
-12.36
-9.36
-5.91
-3.18
-2.43
-4.66
-9.94
-17.02
-23.55
-27.01
-25.42
-18.21
-5.74
10.22
25.84
35.95
36.99
29.64
17.79
7.19
-1.03
-7.04
-11.57
-15.59
-19.70
-24.12
-28.89
-33.84
-38.12
-40.11
-37.38
-28.20
-12.58
7.73
30.11
52.10
71.86
88.25
100.34
107.48
108.89
104.00
93.21
78.31
61.89
46.34
33.01
21.95
12.63
4.40
-3.25
-10.36
-16.67
-21.90
-26.17
-30.00
-34.31
-40.00
-47.75
-57.94
-70.47
-84.64
-99.17
-112.37
-122.31
-127.33
-126.40
-119.45
-107.48
-92.12
-75.13
-57.96
-41.49
-26.09
-11.92
0.89
11.94
20.61
26.30
28.73
28.20
25.58
22.08
18.90
16.93
16.46
17.14
18.42
19.80
21.08
22.19
23.07
23.57
23.50
22.65
20.74
17.89
14.61
11.61
9.41
8.05
7.13
6.09
4.37
1.36
-3.06
-8.43
-13.98
-19.03
-23.29
-26.70
-29.23
-30.97
-32.43
-33.94
-35.44
-36.65
-37.38
-37.68
-37.59
-36.82
-31.60
-19.94
-2.75
16.63
34.98
50.60
63.01
72.18
79.27
84.42
86.89
86.26
82.92
78.01
72.85
68.36
64.06
59.76
54.99
49.15
42.23
34.82
27.84
21.97
17.42
14.09
12.00
11.06
10.90
11.00
10.70
9.43
6.85
3.08
-1.23
-5.21
-8.30
-10.55
-12.39
-14.34
-16.67
-19.41
-22.48
-25.77
-29.26
-33.05
-37.27
-41.88
-46.55
-50.75
-53.92
-55.67
-56.03
-55.42
-54.59
-54.36
-55.31
-57.42
-60.05
-61.98
-61.79
-58.33
-51.11
-40.51
-27.68
-14.20
-1.52
9.28
17.76
23.97
28.20
30.71
31.70
31.37
29.98
27.99
25.88
24.06
22.76
21.91
21.31
20.70
19.92
18.96
18.00
17.25
16.87
16.87
17.06
17.13
16.74
15.72
14.09
12.10
10.05
8.19
6.55
5.01
3.34
1.35
-1.07
-3.98
-7.38
-11.26
-15.51
-19.85
-23.79
-26.78
-28.39
-28.59
-27.83
-26.95
-26.88
-28.33
-31.58
-36.42
-42.25
-48.33
-53.87
-58.14
-60.47
-60.31
-57.34
-51.70
-44.00
-35.26
-26.68
-19.21
-13.37
-9.13
-6.07
-3.72
-1.75
-0.06
1.22
1.95
2.08
1.75
1.26
1.06
1.63
3.33
6.26
10.12
14.26
17.92
20.47
21.58
21.23
19.61
16.89
13.21
8.77
3.96
-0.69
-4.62
-7.50
-9.35
-10.53
-11.49
-12.56
-13.81
-15.03
-15.93
-16.23
-15.80
-14.75
-13.41
-12.35
-12.24
-13.64
-16.79
-21.36
-26.40
-30.53
-32.29
-30.65
-25.35
-16.97
-6.72
3.99
14.07
23.03
30.96
38.16
44.80
50.67
55.19
57.81
58.22
56.62
53.56
49.76
45.83
42.14
38.87
36.10
33.88
32.28
31.29
30.77
30.46
30.03
29.24
27.99
26.32
24.39
22.32
20.18
17.96
15.66
13.31
10.93
8.51
5.93
3.03
-0.33
-4.16
-8.30
-12.49
-16.46
-20.04
-23.20
-26.05
-28.72
-31.39
-34.30
-37.77
-42.05
-47.24
-53.04
-58.66
-62.90
-64.47
-62.34
-56.07
-45.99
-33.11
-18.81
-4.47
8.83
20.40
29.92
37.30
42.59
45.87
47.36
47.39
46.37
44.75
42.86
40.88
38.92
37.04
35.37
34.07
33.27
33.03
33.22
33.62
33.95
33.98
33.61
32.84
31.82
30.68
29.50
28.26
26.90
25.30
23.43
21.33
19.10
16.75
14.16
11.08
7.28
2.71
-2.36
-7.50
-12.26
-16.31
-19.60
-22.27
-24.56
-26.77
-29.30
-32.58
-37.07
-42.93
-49.83
-56.75
-62.15
-64.40
-62.28
-55.45
-44.45
-30.61
-15.56
-0.93
11.97
22.32
29.79
34.49
36.83
37.35
36.60
35.04
33.08
31.02
29.14
27.68
26.77
26.37
26.27
26.18
25.84
25.24
24.55
24.08
24.10
24.67
25.57
26.38
26.57
25.68
23.40
19.67
14.55
8.40
1.94
-3.85
-7.80
-9.13
-7.84
-4.90
-1.97
-0.83
-2.70
-7.78
-15.43
-24.53
-34.05
-43.35
-52.14
-60.31
-67.82
-74.62
-80.78
-86.37
-91.31
-95.25
-97.45
-97.03
-93.22
-85.69
-74.71
-61.00
-45.61
-29.61
-13.99
0.44
13.08
23.48
31.31
36.41
38.79
38.77
37.10
34.78
32.87
32.18
32.90
34.58
36.38
37.48
37.56
36.85
36.06
35.92
36.82
38.66
40.96
43.06
44.44
44.84
44.17
42.42
39.55
35.56
30.51
24.73
18.71
12.94
7.74
3.18
-0.92
-4.82
-8.66
-12.44
-16.10
-19.59
-22.97
-26.37
-29.83
-33.31
-36.71
-40.03
-43.38
-46.89
-50.33
-53.00
-53.67
-51.07
-44.35
-33.65
-20.16
-5.77
7.50
18.19
25.74
30.36
32.79
33.79
33.96
33.58
32.74
31.41
29.65
27.58
25.45
23.45
21.74
20.33
19.14
18.06
17.02
16.05
15.30
14.97
15.18
15.90
16.84
17.55
17.61
16.73
14.91
12.37
9.43
6.40
3.40
0.47
-2.47
-5.51
-8.72
-12.09
-15.47
-18.68
-21.50
-23.84
-25.71
-27.25
-28.64
-30.05
-31.60
-33.42
-35.65
-38.34
-41.36
-44.18
-45.93
-45.59
-42.39
-36.11
-27.24
-16.86
-6.21
3.60
11.87
18.34
23.09
26.38
28.47
29.55
29.73
29.12
27.90
26.33
24.66
23.14
21.85
20.78
19.86
19.08
18.46
18.11
18.07
18.26
18.54
18.69
18.50
17.88
16.75
15.12
13.03
10.57
7.90
5.14
2.41
-0.31
-3.06
-5.92
-8.95
-12.14
-15.48
-18.92
-22.45
-25.94
-29.23
-32.10
-34.43
-36.25
-37.83
-39.56
-41.81
-44.69
-47.93
-50.83
-52.47
-51.95
-48.71
-42.70
-34.43
-24.73
-14.55
-4.70
4.28
12.09
18.58
23.71
27.45
29.83
30.95
30.97
30.15
28.75
27.06
25.35
23.80
22.54
21.58
20.86
20.24
19.62
18.91
18.10
17.22
16.37
15.60
14.99
14.52
14.11
13.58
12.76
11.48
9.67
7.36
4.64
1.66
-1.51
-4.83
-8.37
-12.19
-16.29
-20.56
-24.75
-28.60
-31.89
-34.58
-36.76
-38.71
-40.73
-43.09
-45.94
-49.23
-52.60
-55.43
-56.87
-56.04
-52.24
-45.23
-35.29
-23.25
-10.21
2.67
14.39
24.31
32.10
37.70
41.22
42.85
42.84
41.51
39.22
36.38
33.39
30.59
28.22
26.40
25.15
24.41
24.13
24.20
24.49
24.88
25.19
25.26
24.95
24.14
22.79
20.90
18.58
16.00
13.32
10.65
7.95
5.06
1.72
-2.23
-6.83
-11.89
-17.06
-21.94
-26.25
-29.88
-32.92
-35.61
-38.23
-41.02
-44.22
-47.92
-52.05
-56.23
-59.77
-61.69
-60.95
-56.80
-48.98
-37.97
-24.81
-10.85
2.62
14.64
24.67
32.55
38.34
42.22
44.37
45.03
44.42
42.88
40.75
38.43
36.29
34.64
33.64
33.32
33.53
34.04
34.60
35.06
35.34
35.43
35.27
34.75
33.69
31.99
29.62
26.72
23.46
19.96
16.26
12.36
8.28
4.19
0.27
-3.30
-6.55
-9.61
-12.73
-16.09
-19.75
-23.59
-27.45
-31.16
-34.68
-38.15
-41.83
-46.01
-50.86
-56.16
-61.23
-64.91
-65.88
-63.00
-55.76
-44.49
-30.25
-14.49
1.32
15.98
28.67
38.85
46.29
50.92
52.92
52.71
50.87
48.06
44.81
41.52
38.38
35.51
33.00
30.95
29.44
28.51
28.08
28.02
28.12
28.15
27.94
27.33
26.22
24.57
22.39
19.78
16.90
13.95
11.12
8.54
6.26
4.22
2.26
0.20
-2.16
-4.87
-7.90
-11.14
-14.42
-17.68
-20.87
-24.01
-27.09
-30.18
-33.36
-36.85
-40.91
-45.55
-50.42
-54.65
-57.00
-56.25
-51.59
-42.96
-31.07
-17.19
-2.85
10.61
22.17
31.28
37.74
41.65
43.28
43.00
41.24
38.47
35.14
31.74
28.61
25.95
23.79
22.03
20.50
19.14
18.01
17.27
17.09
17.52
18.35
19.17
19.43
18.67
16.70
13.68
10.08
6.47
3.30
0.75
-1.32
-3.22
-5.32
-7.79
-10.69
-13.91
-17.34
-20.86
-24.41
-27.94
-31.40
-34.78
-38.16
-41.74
-45.70
-50.03
-54.34
-57.81
-59.34
-57.92
-53.02
-44.82
-34.22
-22.54
-11.11
-0.96
7.36
13.70
18.09
20.61
21.36
20.52
18.44
15.64
12.68
10.01
7.76
5.75
3.63
1.09
-1.91
-5.10
-7.91
-9.79
-10.26
-9.23
-6.88
-3.65
-0.11
3.11
5.45
6.57
6.47
5.67
5.00
5.46
7.79
12.24
18.44
25.54
32.49
38.35
42.54
44.95
45.82
45.61
44.77
43.54
41.89
39.67
36.77
33.41
30.12
27.55
26.26
26.52
28.41
32.02
37.58
45.39
55.51
67.51
80.44
93.14
104.61
114.35
122.40
128.93
134.02
137.47
138.89
137.98
134.82
129.91
123.99
117.51
110.18
101.11
89.39
74.81
58.15
41.14
25.85
13.88
5.86
0.86
-3.05
-8.16
-16.64
-30.14
-49.42
-73.97
-101.69
-129.19
-153.20
-170.92
-181.00
-184.08
-182.62
-179.76
-177.96
-178.17
-179.90
-183.33
-188.28
-194.33
-201.00
-207.83
-214.34
-219.72
-222.68
-221.49
-216.09
-205.98
-190.48
-169.79
-146.00
-122.47
-102.05
-85.79
-73.07
-65.12
-62.63
-65.18
-71.15
-78.54
-85.32
-89.61
-90.45
-73.10
-34.14
17.72
68.45
109.57
139.99
161.57
175.84
183.51
185.06
179.21
166.77
150.30
133.42
118.66
106.74
97.14
88.93
81.25
71.44
59.20
45.35
31.78
20.09
10.94
4.33
-0.06
-2.69
-5.24
-8.89
-14.07
-20.46
-27.82
-36.07
-44.88
-53.29
-59.84
-63.48
-63.34
-59.07
-50.82
-39.51
-26.45
-12.93
0.16
12.31
22.91
31.55
37.88
41.95
44.03
44.57
44.12
43.10
41.80
40.36
38.82
37.20
35.61
34.11
32.78
31.56
30.36
29.06
27.62
26.10
24.59
23.22
22.06
21.11
20.20
19.02
17.15
14.24
10.17
5.22
0.02
-4.63
-8.10
-10.14
-10.99
-11.19
-11.30
-11.79
-12.95
-15.02
-18.24
-22.65
-28.03
-33.80
-39.35
-44.31
-48.88
-53.57
-58.72
-63.90
-67.75
-68.37
-64.11
-54.27
-39.44
-21.37
-2.44
14.84
28.28
36.28
38.06
33.89
25.10
13.85
2.55
-6.88
-13.42
-16.94
-17.89
-16.82
-14.12
-10.06
-5.01
0.40
5.36
9.10
11.21
11.84
11.60
11.32
11.69
12.98
15.00
17.22
19.09
20.27
20.89
21.49
22.75
25.16
28.63
32.55
36.00
38.33
39.53
40.18
40.98
42.17
43.11
42.47
38.82
31.47
20.87
8.47
-3.96
-15.04
-24.10
-30.96
-35.43
-37.03
-35.17
-29.74
-21.54
-12.27
-3.85
2.29
5.81
7.36
8.07
8.76
9.65
10.33
10.22
8.95
6.59
3.56
0.43
-2.27
-4.24
-5.45
-6.05
-6.35
-6.61
-6.99
-7.47
-7.86
-7.95
-7.54
-6.56
-5.06
-3.17
-1.08
1.00
2.85
4.32
5.41
6.38
7.69
9.94
13.64
19.03
25.96
34.09
43.04
52.64
62.93
73.89
85.21
96.00
105.00
110.89
112.78
110.45
104.48
96.04
86.64
77.94
71.48
68.40
69.01
72.56
77.23
80.59
80.46
75.69
66.62
54.84
42.42
31.15
22.04
15.18
9.94
5.34
0.23
-6.48
-15.52
-27.08
-40.55
-54.57
-67.27
-76.91
-82.37
-83.49
-80.97
-76.02
-69.89
-63.60
-57.72
-52.46
-47.75
-43.38
-39.13
-34.78
-30.19
-25.30
-20.18
-15.09
-10.44
-6.62
-3.83
-1.98
-0.69
0.52
1.98
3.64
5.16
5.96
5.59
3.86
0.91
-2.98
-7.40
-11.99
-16.25
-19.61
-21.48
-21.40
-19.27
-15.38
-10.25
-4.53
1.25
6.74
11.68
15.85
18.99
20.82
21.26
20.46
18.87
17.05
15.47
14.42
14.05
14.41
15.44
16.95
18.73
20.59
22.42
24.15
25.81
27.41
28.84
29.80
29.87
28.71
26.16
22.36
17.43
11.69
5.60
-0.40
-6.02
-11.29
-16.38
-21.55
-26.93
-33.02
-39.98
-47.55
-55.23
-62.68
-69.84
-76.66
-82.92
-88.12
-92.78
-97.23
-101.28
-104.38
-106.11
-106.26
-104.64
-100.97
-95.11
-88.96
-84.28
-81.60
-80.26
-79.30
-78.08
-76.51
-74.96
-74.23
-77.30
-85.86
-98.92
-113.32
-125.90
-134.91
-140.36
-143.46
-132.21
-101.92
-57.72
-11.09
28.99
59.43
80.75
94.66
103.31
109.09
112.05
112.96
113.12
113.81
115.13
116.09
115.49
112.94
109.06
103.41
94.99
84.70
74.31
65.06
57.15
50.10
43.36
36.69
29.25
21.07
13.38
7.86
5.54
6.35
9.37
13.42
17.55
20.79
22.75
23.78
24.48
25.26
26.20
27.19
28.14
28.96
29.35
29.00
27.85
26.03
23.82
21.56
19.57
18.07
17.12
16.73
16.83
17.31
17.96
18.40
18.14
16.77
14.24
10.96
7.73
5.29
4.03
3.74
3.66
2.92
0.92
-2.39
-6.58
-11.00
-15.11
-18.76
-22.16
-25.82
-30.22
-35.76
-42.58
-50.51
-59.05
-67.28
-73.90
-77.45
-76.66
-70.79
-60.01
-45.33
-28.36
-10.86
5.70
20.39
32.75
42.57
49.78
54.38
56.58
56.84
55.84
54.25
52.45
50.41
47.75
43.96
38.69
31.91
24.00
15.61
7.47
0.16
-6.06
-11.44
-16.60
-22.23
-28.64
-35.59
-42.18
-47.34
-50.45
-51.74
-52.40
-54.09
-58.28
-65.60
-75.56
-86.66
-96.99
-104.88
-109.51
-111.31
-111.92
-113.73
-118.84
-128.03
-140.13
-152.29
-161.15
-164.13
-160.17
-149.55
-133.15
-111.65
-85.53
-55.69
-24.11
6.30
33.02
55.39
74.72
92.90
110.18
123.95
129.89
124.84
109.57
89.38
71.73
62.35
62.33
68.05
73.82
75.65
73.41
70.28
69.99
74.03
80.49
85.37
85.09
78.47
67.24
54.99
45.15
39.52
37.55
36.93
34.89
29.49
20.41
8.99
-2.54
-12.18
-19.04
-23.65
-27.59
-32.61
-39.78
-49.02
-59.28
-69.03
-76.96
-82.24
-84.50
-83.49
-78.90
-70.49
-58.43
-43.52
-27.17
-11.04
3.41
15.33
24.60
31.64
37.01
41.17
44.32
46.51
47.83
48.48
48.75
48.91
49.03
49.07
48.91
48.56
48.18
48.03
48.32
49.11
50.24
51.38
52.14
52.12
51.06
48.91
45.81
42.07
38.05
34.04
30.15
26.29
22.26
17.91
13.22
8.41
3.76
-0.44
-4.10
-7.31
-10.32
-13.40
-16.80
-20.70
-25.21
-30.35
-35.88
-41.26
-45.58
-47.78
-46.94
-42.62
-35.07
-25.17
-14.10
-3.02
7.23
16.22
23.81
30.01
34.84
38.35
40.59
41.78
42.21
42.16
41.88
41.45
40.87
40.05
38.99
37.75
36.45
35.23
34.11
33.03
31.82
30.28
28.28
25.80
22.93
19.87
16.74
13.67
10.72
7.86
5.07
2.31
-0.43
-3.13
-5.74
-8.21
-10.50
-12.65
-14.83
-17.31
-20.38
-24.26
-28.83
-33.65
-37.90
-40.65
-41.10
-38.82
-33.91
-26.92
-18.71
-10.17
-2.10
5.05
11.04
15.87
19.67
22.57
24.65
25.89
26.25
25.73
24.38
22.37
19.97
17.49
15.22
13.37
12.03
11.16
10.58
10.08
9.46
8.65
7.63
6.47
5.16
3.66
1.91
-0.11
-2.27
-4.38
-6.31
-8.08
-9.82
-11.76
-13.98
-16.45
-19.01
-21.55
-24.08
-26.77
-29.70
-32.73
-35.41
-37.01
-36.87
-34.60
-30.29
-24.47
-17.88
-11.23
-5.00
0.54
5.27
9.14
12.06
13.94
14.73
14.50
13.46
11.87
10.06
8.28
6.72
5.46
4.56
3.98
3.66
3.51
3.40
3.25
2.98
2.60
2.05
1.27
0.14
-1.45
-3.55
-6.07
-8.85
-11.67
-14.37
-16.89
-19.30
-21.76
-24.48
-27.68
-31.48
-35.85
-40.43
-44.55
-47.38
-48.08
-46.18
-41.64
-34.90
-26.73
-17.91
-9.15
-0.96
6.31
12.47
17.43
21.19
23.89
25.69
26.78
27.26
27.16
26.48
25.25
23.58
21.64
19.68
17.94
16.58
15.66
15.07
14.62
14.08
13.27
12.09
10.55
8.74
6.76
4.71
2.58
0.35
-2.11
-4.93
-8.24
-12.10
-16.45
-21.11
-25.82
-30.35
-34.53
-38.41
-42.20
-46.19
-50.53
-55.07
-59.20
-61.95
-62.28
-59.42
-53.15
-43.92
-32.64
-20.44
-8.35
2.89
12.86
21.31
28.15
33.34
36.87
38.90
39.67
39.49
38.68
37.47
35.97
34.24
32.36
30.42
28.61
27.07
25.94
25.24
24.85
24.57
24.13
23.27
21.85
19.84
17.39
14.72
12.02
9.35
6.60
3.58
0.13
-3.80
-8.09
-12.50
-16.79
-20.79
-24.44
-27.76
-30.92
-34.12
-37.58
-41.40
-45.40
-49.02
-51.35
-51.35
-48.26
-41.80
-32.37
-20.86
-8.46
3.69
14.69
23.94
31.13
36.23
39.41
41.02
41.49
41.25
40.60
39.67
38.49
37.06
35.42
33.71
32.04
30.52
29.17
28.03
27.11
26.43
26.03
25.82
25.60
25.05
23.87
21.86
19.07
15.74
12.30
9.13
6.45
4.22
2.21
0.09
-2.38
-5.26
-8.42
-11.64
-14.67
-17.36
-19.67
-21.66
-23.51
-25.45
-27.75
-30.64
-34.17
-38.11
-41.86
-44.52
-45.16
-43.03
-37.85
-29.88
-19.85
-8.81
2.14
11.98
19.98
25.73
29.16
30.54
30.35
29.15
27.39
25.39
23.31
21.22
19.16
17.18
15.38
13.81
12.54
11.59
10.96
10.61
10.43
10.36
10.28
10.10
9.70
9.00
7.92
6.42
4.55
2.42
0.18
-2.02
-4.12
-6.09
-7.96
-9.78
-11.55
-13.30
-14.98
-16.57
-18.01
-19.27
-20.35
-21.31
-22.23
-23.24
-24.54
-26.29
-28.53
-31.05
-33.38
-34.76
-34.37
-31.60
-26.27
-18.74
-9.86
-0.70
7.70
14.56
19.41
22.17
23.01
22.30
20.50
18.08
15.40
12.70
10.09
7.64
5.48
3.79
2.74
2.40
2.72
3.52
4.61
5.81
6.97
7.94
8.49
8.43
7.61
6.05
3.97
1.71
-0.38
-2.06
-3.24
-3.98
-4.39
-4.64
-4.89
-5.31
-6.07
-7.21
-8.69
-10.35
-11.99
-13.46
-14.69
-15.73
-16.66
-17.60
-18.63
-19.91
-21.60
-23.79
-26.37
-28.98
-31.01
-31.76
-30.70
-27.61
-22.68
-16.40
-9.38
-2.25
4.43
10.21
14.77
17.88
19.49
19.72
18.82
17.14
15.06
12.94
11.07
9.62
8.71
8.31
8.30
8.46
8.52
8.27
7.65
6.80
6.01
5.55
5.55
5.88
6.20
6.14
5.42
4.02
2.07
-0.24
-2.77
-5.44
-8.19
-10.92
-13.45
-15.60
-17.24
-18.42
-19.31
-20.15
-21.15
-22.44
-24.05
-25.92
-28.00
-30.26
-32.71
-35.36
-38.09
-40.59
-42.32
-42.59
-40.78
-36.55
-30.00
-21.66
-12.41
-3.24
5.00
11.69
16.55
19.57
20.92
20.93
19.98
18.46
16.72
15.02
13.54
12.36
11.53
11.04
10.87
10.89
10.97
10.95
10.76
10.45
10.17
10.10
10.32
10.73
11.09
11.13
10.69
9.75
8.38
6.64
4.43
1.59
-1.99
-6.24
-10.81
-15.20
-18.98
-21.89
-24.02
-25.65
-27.10
-28.59
-30.25
-32.11
-34.30
-37.00
-40.43
-44.63
-49.34
-53.89
-57.31
-58.54
-56.73
-51.47
-42.94
-31.86
-19.35
-6.69
4.97
14.85
22.55
28.07
31.64
33.57
34.22
33.88
32.86
31.36
29.56
27.53
25.36
23.18
21.18
19.65
18.77
18.64
19.17
20.19
21.43
22.67
23.65
24.09
23.75
22.44
20.20
17.22
13.84
10.37
6.96
3.61
0.24
-3.24
-6.84
-10.50
-14.19
-17.88
-21.61
-25.42
-29.32
-33.27
-37.27
-41.42
-45.82
-50.50
-55.19
-59.21
-61.61
-61.32
-57.61
-50.27
-39.75
-26.97
-13.07
0.90
14.06
25.71
35.31
42.46
46.93
48.76
48.33
46.23
43.19
39.83
36.56
33.53
30.71
28.03
25.55
23.50
22.14
21.71
22.18
23.29
24.57
25.52
25.76
25.14
23.76
21.84
19.64
17.27
14.71
11.78
8.32
4.28
-0.18
-4.74
-9.04
-12.89
-16.30
-19.46
-22.63
-26.07
-30.00
-34.53
-39.59
-44.73
-49.07
-51.37
-50.40
-45.38
-36.32
-24.11
-10.17
3.96
17.07
28.43
37.73
44.83
49.68
52.25
52.70
51.44
49.10
46.37
43.81
41.66
39.85
38.21
36.56
34.95
33.59
32.73
32.51
32.83
33.33
33.56
33.07
31.58
29.05
25.68
21.80
17.76
13.79
9.96
6.16
2.27
-1.78
-5.93
-9.96
-13.64
-16.74
-19.23
-21.31
-23.41
-26.11
-29.90
-34.86
-40.50
-45.69
-49.00
-49.09
-45.20
-37.36
-26.34
-13.41
0.07
12.91
24.28
33.75
41.21
46.84
50.91
53.62
55.01
54.81
52.71
48.55
42.68
36.12
30.45
27.23
27.34
30.43
34.85
38.30
38.82
35.84
30.57
25.56
23.60
26.44
34.01
44.46
54.87
62.41
65.24
62.94
56.27
46.82
36.71
28.40
24.56
27.62
38.87
57.26
78.92
97.92
108.35
106.64
93.07
71.13
45.30
18.39
-9.74
-40.88
-75.67
-111.04
-140.10
-154.70
-149.33
-124.14
-85.11
-41.59
-2.30
27.64
47.40
59.10
65.36
67.52
65.15
56.99
42.38
22.26
-0.79
-23.34
-42.26
-55.65
-63.27
-66.20
-66.02
-63.94
-60.34
-54.91
-47.25
-37.47
-26.65
-16.60
-9.32
-6.08
-7.04
-11.09
-16.38
-21.12
-24.26
-25.78
-26.49
-27.48
-29.50
-32.65
-36.48
-40.28
-43.55
-46.18
-48.47
-50.89
-53.77
-57.11
-60.40
-62.70
-62.84
-59.72
-52.69
-41.78
-27.78
-12.12
3.59
17.90
29.88
39.15
45.75
49.91
51.80
51.53
49.22
45.12
39.77
33.86
28.14
23.11
18.95
15.48
12.38
9.44
6.69
4.46
3.14
2.99
3.86
5.27
6.52
6.97
6.25
4.42
1.82
-1.08
-3.85
-6.30
-8.43
-10.39
-12.34
-14.40
-16.56
-18.79
-21.00
-23.10
-25.04
-26.81
-28.50
-30.33
-32.60
-35.62
-39.55
-44.21
-48.97
-52.86
-54.74
-53.69
-49.24
-41.62
-31.62
-20.42
-9.28
0.76
8.99
15.10
19.04
20.94
21.00
19.48
16.68
12.99
8.86
4.76
1.11
-1.88
-4.17
-5.95
-7.41
-8.71
-9.89
-10.85
-11.46
-11.69
-11.63
-11.53
-11.70
-12.38
-13.70
-15.62
-17.98
-20.55
-23.13
-25.54
-27.72
-29.66
-31.37
-32.93
-34.39
-35.80
-37.16
-38.38
-39.32
-39.92
-40.27
-40.62
-41.37
-42.93
-45.55
-49.20
-53.46
-57.54
-60.40
-61.00
-58.51
-52.59
-43.46
-31.87
-18.89
-5.66
6.82
17.84
26.96
33.94
38.69
41.23
41.76
40.66
38.43
35.64
32.78
30.24
28.21
26.76
25.80
25.24
24.94
24.79
24.68
24.53
24.19
23.51
22.29
20.44
17.97
15.00
11.77
8.50
5.29
2.11
-1.17
-4.66
-8.38
-12.26
-16.17
-19.97
-23.60
-27.06
-30.43
-33.86
-37.53
-41.66
-46.40
-51.68
-57.15
-62.07
-65.40
-66.10
-63.36
-56.92
-47.16
-34.93
-21.38
-7.62
5.50
17.37
27.66
36.13
42.64
47.14
49.75
50.77
50.59
49.64
48.25
46.59
44.80
43.01
41.41
40.20
39.60
39.67
40.31
41.27
42.15
42.54
42.08
40.56
38.01
34.69
31.03
27.46
24.31
21.63
19.22
16.74
13.85
10.34
6.19
1.53
-3.42
-8.40
-13.23
-17.71
-21.72
-25.23
-28.34
-31.30
-34.45
-38.01
-41.92
-45.71
-48.51
-49.27
-47.12
-41.61
-32.87
-21.53
-8.54
5.10
18.48
30.84
41.46
49.75
55.29
57.96
58.04
56.19
53.31
50.23
47.61
45.78
44.75
44.33
44.23
44.19
43.99
43.52
42.78
41.84
40.75
39.51
38.00
36.06
33.56
30.51
27.02
23.27
19.38
15.43
11.45
7.49
3.63
-0.01
-3.38
-6.51
-9.52
-12.55
-15.67
-18.84
-21.97
-25.03
-28.10
-31.30
-34.67
-37.98
-40.72
-42.16
-41.64
-38.74
-33.55
-26.51
-18.34
-9.76
-1.37
6.42
13.32
19.10
23.57
26.64
28.36
28.96
28.75
28.05
27.13
26.13
25.16
24.33
23.77
23.58
23.78
24.29
24.94
25.50
25.80
25.70
25.15
24.16
22.76
21.04
19.08
16.97
14.70
12.19
9.28
5.84
1.93
-2.27
-6.41
-10.19
-13.44
-16.24
-18.89
-21.76
-25.08
-28.79
-32.43
-35.26
-36.51
-35.61
-32.36
-27.02
-20.15
-12.51
-4.79
2.41
8.71
13.86
17.77
20.51
22.23
23.15
23.48
23.38
23.04
22.69
22.64
23.16
24.39
26.27
28.47
30.59
32.32
33.59
34.55
35.56
36.91
38.73
40.91
43.19
45.24
46.81
47.85
48.50
49.06
49.90
51.33
53.43
55.96
58.20
58.96
56.74
49.96
37.47
19.02
-4.32
-30.15
-55.07
-75.56
-88.87
-93.66
-90.09
-79.41
-63.38
-43.94
-23.18
-3.48
12.63
23.01
26.66
24.24
17.77
9.80
2.34
-3.67
-8.26
-11.75
-14.12
-14.92
-13.54
-9.81
-4.17
2.31
8.40
12.99
15.25
14.74
11.44
5.81
-1.24
-8.48
-14.74
-19.24
-21.63
-21.96
-20.51
-17.67
-14.04
-10.45
-7.88
-7.11
-8.27
-10.74
-13.31
-14.75
-14.39
-12.51
-10.22
-9.01
-10.19
-14.50
-21.94
-31.86
-43.16
-54.42
-64.10
-70.81
-73.56
-72.02
-66.66
-58.60
-49.21
-39.62
-30.46
-21.86
-13.75
-6.14
0.59
5.82
8.93
9.61
7.99
4.68
0.66
-3.00
-5.37
-5.95
-4.86
-2.84
-1.05
-0.53
-1.81
-4.67
-8.29
-11.70
-14.25
-16.03
-17.73
-20.29
-24.34
-30.00
-37.00
-44.96
-53.70
-63.18
-73.15
-82.98
-91.60
-97.93
-101.44
-102.59
-102.67
-103.16
-104.89
-107.74
-110.84
-113.36
-115.06
-116.21
-117.02
-116.89
-114.43
-108.05
-96.98
-81.83
-64.45
-46.98
-30.79
-15.97
-1.54
13.57
29.79
46.42
62.09
75.44
85.87
93.74
100.23
106.71
114.16
122.82
132.19
141.40
149.72
156.91
163.17
168.82
173.90
178.03
180.53
180.75
178.28
172.96
164.80
153.85
140.26
124.28
106.10
85.56
62.04
34.54
2.43
-33.81
-72.02
-108.69
-139.89
-162.68
-176.10
-181.36
-181.13
-178.38
-175.37
-173.24
-172.10
-171.38
-170.17
-167.31
-161.55
-151.66
-136.90
-117.24
-93.67
-67.93
-42.11
-18.13
2.54
18.93
30.50
37.11
39.18
37.72
34.16
29.95
26.11
22.97
20.38
18.02
15.82
14.04
13.19
13.73
15.86
19.39
23.87
28.57
32.67
35.36
35.98
34.27
30.48
25.38
20.09
15.77
13.32
13.14
14.95
17.73
19.98
20.09
16.89
10.23
1.07
-8.86
-17.67
-24.06
-27.80
-29.71
-31.21
-33.72
-38.10
-44.32
-51.51
-58.21
-62.77
-63.76
-60.30
-52.31
-40.44
-25.94
-10.27
5.16
19.27
31.31
40.91
47.98
52.70
55.45
56.74
57.11
57.04
56.81
56.59
56.40
56.28
56.32
56.62
57.30
58.39
59.85
61.50
63.08
64.23
64.52
63.66
61.56
58.44
54.76
51.05
47.68
44.77
42.18
39.71
37.22
34.72
32.31
30.06
28.00
26.07
24.25
22.53
20.89
19.19
17.15
14.37
10.39
4.86
-2.37
-11.12
-20.65
-29.70
-36.49
-39.13
-36.11
-26.88
-12.11
6.40
26.18
44.73
60.01
70.78
76.50
77.31
73.80
66.97
58.08
48.54
39.66
32.37
27.08
23.69
21.88
21.22
21.41
22.19
23.36
24.64
25.78
26.62
27.16
27.52
27.83
28.05
27.90
26.95
24.85
21.50
17.23
12.61
8.29
4.72
2.03
0.08
-1.42
-2.69
-3.84
-4.83
-5.64
-6.38
-7.33
-8.85
-11.28
-14.73
-18.99
-23.57
-27.76
-30.83
-32.23
-31.70
-29.30
-25.36
-20.40
-15.07
-10.04
-5.88
-3.02
-1.61
-1.57
-2.69
-4.76
-7.63
-11.30
-15.68
-20.52
-25.34
-29.43
-32.14
-33.14
-32.58
-31.03
-29.23
-27.64
-26.25
-24.57
-21.96
-18.12
-13.33
-8.40
-4.28
-1.48
0.12
1.25
2.75
5.13
8.33
11.85
15.09
17.56
19.00
19.24
18.15
15.64
11.79
7.01
1.95
-2.67
-6.35
-9.00
-10.97
-12.87
-15.34
-18.80
-23.36
-28.74
-34.31
-39.24
-42.75
-44.30
-43.78
-41.55
-38.27
-34.58
-30.93
-27.48
-24.21
-21.08
-18.15
-15.50
-13.19
-11.21
-9.47
-7.94
-6.72
-6.00
-5.99
-6.73
-8.05
-9.59
-10.97
-11.94
-12.49
-12.77
-12.93
-13.00
-12.84
-12.26
-11.13
-9.43
-7.26
-4.78
-2.17
0.40
2.73
4.72
6.39
7.99
9.99
12.89
16.95
21.92
26.95
30.90
32.75
31.89
28.45
23.25
17.55
12.70
9.70
8.88
10.01
12.62
16.04
19.67
23.10
26.06
28.33
29.54
29.23
27.18
23.95
20.16
16.49
13.45
11.19
9.56
8.02
5.83
2.61
-0.85
-3.90
-5.95
-6.75
-6.44
-5.21
-3.17
-0.23
4.17
11.36
20.91
30.94
38.30
39.38
33.50
23.55
11.60
-1.98
-15.16
-26.68
-34.81
-37.13
-30.99
-14.86
9.75
39.84
64.01
76.47
73.34
54.94
25.56
-8.31
-40.41
-66.74
-86.27
-100.17
-109.26
-114.84
-117.48
-117.04
-113.06
-105.17
-93.56
-79.27
-64.00
-48.65
-34.34
-21.45
-9.54
2.38
15.31
29.67
45.01
60.09
73.98
85.72
94.92
101.82
107.04
111.25
114.95
118.36
121.45
124.31
126.61
127.63
126.20
120.76
109.79
92.35
68.54
39.74
8.56
-21.74
-47.79
-66.81
-77.26
-79.02
-73.36
-62.55
-49.16
-35.58
-23.70
-14.95
-10.30
-10.36
-15.23
-24.39
-36.62
-50.28
-63.60
-75.21
-84.31
-90.83
-95.21
-98.02
-99.71
-100.34
-99.57
-96.81
-91.54
-83.55
-73.09
-60.92
-48.04
-35.49
-24.08
-14.35
-6.57
-0.84
2.87
4.64
4.59
3.02
0.27
-3.20
-6.96
-10.64
-14.02
-16.98
-19.54
-21.70
-23.45
-24.78
-25.71
-26.34
-26.88
-27.55
-28.52
-29.86
-31.42
-32.93
-34.01
-34.29
-33.53
-31.54
-28.27
-23.64
-17.64
-10.30
-1.88
7.10
15.83
23.49
29.39
33.29
35.32
35.88
35.42
34.22
32.37
29.85
26.57
22.41
17.28
11.10
4.02
-3.42
-10.24
-15.10
-16.66
-14.03
-7.09
3.37
15.88
28.75
40.46
50.04
57.13
61.82
64.41
65.19
64.36
62.12
58.77
54.75
50.58
46.70
43.30
40.33
37.61
34.97
32.40
30.01
27.88
25.95
24.00
21.69
18.76
15.09
10.76
5.97
1.03
-3.78
-8.22
-12.15
-15.56
-18.60
-21.48
-24.45
-27.62
-30.99
-34.49
-37.95
-41.20
-44.10
-46.52
-48.38
-49.76
-50.84
-52.03
-53.79
-56.54
-60.45
-65.34
-70.64
-75.36
-78.31
-78.28
-74.38
-66.30
-54.51
-40.15
-24.75
-9.84
3.39
14.30
22.79
29.09
33.60
36.64
38.44
39.12
38.83
37.77
36.24
34.58
33.08
31.89
31.13
30.88
31.24
32.22
33.65
35.07
35.93
35.77
34.49
32.51
30.44
28.80
27.62
26.50
24.87
22.34
19.00
15.32
11.85
8.91
6.54
4.51
2.58
0.65
-1.28
-3.16
-5.04
-7.04
-9.30
-11.87
-14.68
-17.64
-20.68
-23.79
-27.10
-30.79
-34.90
-39.31
-43.46
-46.47
-47.29
-45.08
-39.49
-30.94
-20.47
-9.40
1.09
10.26
17.89
24.02
28.81
32.32
34.54
35.56
35.62
35.13
34.49
33.99
33.70
33.59
33.65
33.94
34.64
35.92
37.82
40.22
42.87
45.42
47.62
49.28
50.33
50.83
50.87
50.56
50.00
49.27
48.34
47.07
45.24
42.67
39.35
35.44
31.33
27.40
23.91
20.84
17.92
14.75
11.05
6.77
2.20
-2.29
-6.45
-10.31
-14.22
-18.66
-24.01
-30.31
-37.17
-43.80
-49.18
-52.33
-52.50
-49.39
-43.21
-34.66
-24.77
-14.62
-5.19
2.79
8.85
12.72
14.35
13.89
11.69
8.39
4.81
1.78
-0.08
-0.57
0.07
1.27
2.36
2.83
2.47
1.43
0.16
-0.89
-1.36
-1.29
-0.98
-0.90
-1.45
-2.74
-4.57
-6.58
-8.44
-10.01
-11.39
-12.76
-14.20
-15.62
-16.84
-17.72
-18.34
-18.97
-19.97
-21.57
-23.83
-26.59
-29.56
-32.45
-35.01
-37.10
-38.79
-40.29
-42.02
-44.43
-47.79
-51.94
-56.29
-59.83
-61.46
-60.25
-55.71
-47.96
-37.67
-25.96
-14.16
-3.51
5.21
11.70
16.19
19.13
20.96
21.98
22.34
22.23
21.91
21.69
21.76
22.03
22.23
21.99
21.08
19.56
17.72
15.89
14.32
13.09
12.14
11.36
10.67
9.96
9.14
8.23
7.21
6.18
5.20
4.30
3.44
2.57
1.69
0.84
0.10
-0.53
-1.10
-1.76
-2.60
-3.64
-4.81
-5.99
-7.15
-8.31
-9.66
-11.41
-13.74
-16.74
-20.31
-24.15
-27.74
-30.43
-31.48
-30.40
-26.97
-21.37
-14.18
-6.18
1.78
8.97
14.84
19.20
22.09
23.73
24.35
24.14
23.17
21.51
19.39
17.16
15.23
13.96
13.46
13.56
13.94
14.36
14.73
15.08
15.50
15.89
15.98
15.43
13.98
11.63
8.64
5.44
2.42
-0.18
-2.36
-4.31
-6.20
-8.17
-10.24
-12.39
-14.59
-16.81
-19.03
-21.19
-23.27
-25.32
-27.49
-30.06
-33.25
-37.14
-41.55
-46.05
-50.03
-52.86
-53.93
-52.77
-49.13
-43.05
-34.92
-25.46
-15.62
-6.29
1.82
8.41
13.51
17.31
20.06
21.94
23.07
23.55
23.57
23.38
23.29
23.50
24.07
24.91
25.78
26.42
26.67
26.54
26.17
25.81
25.67
25.83
26.14
26.37
26.17
25.32
23.76
21.61
19.13
16.53
13.89
11.17
8.24
4.97
1.31
-2.68
-6.87
-11.03
-14.89
-18.15
-20.59
-22.15
-23.01
-23.56
-24.33
-25.87
-28.58
-32.55
-37.45
-42.47
-46.42
-47.95
-45.94
-39.86
-29.99
-17.36
-3.43
10.40
23.07
34.04
43.11
50.28
55.57
58.99
60.72
61.08
60.52
59.48
58.23
56.84
55.20
53.17
50.72
48.00
45.23
42.64
40.33
38.26
36.23
33.96
31.16
27.66
23.49
18.90
14.32
10.27
7.19
5.22
4.14
3.30
1.82
-1.11
-5.93
-12.56
-20.36
-28.44
-35.88
-42.08
-46.81
-50.18
-52.49
-54.02
-55.04
-55.84
-56.73
-58.15
-60.53
-64.14
-68.94
-74.43
-79.59
-83.10
-83.63
-80.22
-72.58
-61.21
-47.24
-32.14
-17.37
-4.09
7.03
15.82
22.43
27.21
30.48
32.50
33.48
33.60
33.17
32.56
32.17
32.28
32.91
33.87
34.83
35.56
36.02
36.41
36.94
37.75
38.65
39.23
39.04
37.79
35.51
32.55
29.37
26.32
23.50
20.78
18.00
15.04
11.95
8.84
5.82
2.89
-0.04
-3.07
-6.20
-9.36
-12.42
-15.29
-17.92
-20.33
-22.52
-24.54
-26.49
-28.56
-31.03
-34.13
-37.87
-41.87
-45.44
-47.68
-47.73
-45.06
-39.63
-31.88
-22.61
-12.78
-3.27
5.27
12.47
18.25
22.62
25.63
27.28
27.58
26.68
24.87
22.65
20.51
18.84
17.84
17.49
17.66
18.21
19.08
20.28
21.82
23.67
25.63
27.48
28.97
29.97
30.47
30.58
30.42
30.05
29.43
28.46
27.07
25.34
23.47
21.80
20.62
20.02
19.87
19.74
19.16
17.74
15.36
12.31
9.18
6.61
5.01
4.36
4.18
3.73
2.36
-0.18
-3.52
-6.75
-8.75
-8.59
-5.88
-0.89
5.62
12.69
19.54
25.69
30.94
35.18
38.26
39.97
40.19
39.00
36.69
33.60
30.01
25.90
21.03
15.22
8.43
0.89
-7.08
-15.28
-23.79
-32.81
-42.41
-52.33
-61.94
-70.53
-77.68
-83.36
-87.90
-91.52
-94.04
-94.82
-92.97
-87.82
-79.22
-67.70
-54.19
-39.83
-25.66
-12.55
-1.21
7.84
14.30
18.07
19.33
18.45
15.88
12.03
7.32
2.11
-3.24
-8.39
-13.09
-17.20
-20.71
-23.58
-25.67
-26.67
-26.10
-23.56
-18.96
-12.66
-5.44
1.68
7.82
12.49
15.69
17.79
19.26
20.55
21.84
23.13
24.27
25.03
25.21
24.65
23.35
21.44
19.24
17.14
15.53
14.66
14.61
15.31
16.56
18.07
19.53
20.61
21.05
20.67
19.48
17.59
15.23
12.61
9.88
7.09
4.30
1.54
-1.12
-3.58
-5.81
-7.93
-10.18
-13.00
-16.75
-21.59
-27.27
-33.09
-38.15
-41.58
-42.95
-42.34
-40.35
-37.80
-35.53
-34.10
-33.73
-34.22
-34.97
-35.18
-33.99
-30.82
-25.58
-18.74
-11.16
-3.76
2.74
7.99
11.94
14.70
16.43
17.29
17.46
17.11
16.33
15.13
13.46
11.28
8.72
6.12
3.99
2.81
2.88
4.22
6.59
9.60
12.87
16.03
18.79
20.88
22.13
22.44
21.83
20.47
18.62
16.56
14.55
12.68
10.86
8.96
6.85
4.48
1.91
-0.77
-3.50
-6.27
-9.11
-12.07
-15.12
-18.24
-21.44
-24.82
-28.52
-32.63
-36.92
-40.86
-43.68
-44.54
-42.90
-38.61
-31.98
-23.70
-14.59
-5.46
2.99
10.26
16.04
20.19
22.79
24.05
24.32
23.98
23.44
23.03
22.92
23.09
23.33
23.38
23.03
22.27
21.29
20.40
19.90
19.95
20.55
21.57
22.77
23.90
24.63
24.73
24.00
22.45
20.24
17.67
15.09
12.75
10.73
8.95
7.19
5.18
2.72
-0.27
-3.66
-7.19
-10.52
-13.38
-15.69
-17.57
-19.34
-21.36
-23.95
-27.24
-31.13
-35.16
-38.52
-40.32
-39.74
-36.42
-30.58
-22.98
-14.61
-6.42
1.04
7.56
13.19
18.02
22.05
25.13
27.06
27.80
27.45
26.35
24.92
23.59
22.65
22.21
22.25
22.62
23.12
23.62
24.02
24.34
24.60
24.87
25.13
25.37
25.54
25.56
25.34
24.78
23.80
22.30
20.25
17.65
14.60
11.23
7.68
4.13
0.70
-2.48
-5.34
-7.86
-10.12
-12.25
-14.42
-16.68
-19.02
-21.39
-23.74
-26.11
-28.58
-31.17
-33.71
-35.84
-37.00
-36.67
-34.51
-30.42
-24.66
-17.70
-10.16
-2.70
4.08
9.74
14.03
16.91
18.52
19.06
18.73
17.71
16.19
14.36
12.48
10.77
9.38
8.41
7.85
7.66
7.79
8.19
8.84
9.69
10.72
11.82
12.83
13.50
13.63
13.11
11.98
10.44
8.78
7.13
5.49
3.73
1.73
-0.48
-2.75
-4.88
-6.78
-8.52
-10.24
-12.05
-13.92
-15.78
-17.61
-19.54
-21.85
-24.76
-28.23
-31.86
-34.88
-36.41
-35.71
-32.46
-26.84
-19.55
-11.57
-3.89
2.77
8.05
12.02
14.94
17.10
18.71
19.83
20.45
20.57
20.25
19.59
18.75
17.89
17.16
16.69
16.53
16.63
16.89
17.17
17.38
17.46
17.39
17.16
16.74
16.15
15.42
14.60
13.73
12.70
11.36
9.57
7.27
4.59
1.69
-1.24
-4.15
-7.06
-10.02
-13.00
-15.86
-18.46
-20.65
-22.41
-23.85
-25.16
-26.67
-28.76
-31.72
-35.66
-40.26
-44.75
-48.00
-48.87
-46.59
-41.04
-32.81
-23.02
-12.98
-3.72
4.26
11.03
17.03
22.74
28.44
34.03
39.17
43.38
46.30
47.80
47.87
46.63
44.20
40.80
36.82
32.80
29.37
26.96
25.73
25.41
25.53
25.55
25.12
24.06
22.47
20.53
18.50
16.55
14.74
12.97
10.94
8.26
4.57
-0.20
-5.79
-11.60
-16.92
-21.18
-24.14
-25.92
-26.85
-27.25
-27.34
-27.22
-27.01
-26.89
-27.13
-27.92
-29.24
-30.76
-31.97
-32.33
-31.55
-29.51
-26.32
-22.17
-17.27
-11.93
-6.61
-1.88
1.73
3.91
4.76
4.79
4.67
4.96
5.87
7.16
8.32
8.88
8.60
7.59
6.26
5.11
4.50
4.61
5.40
6.66
8.13
9.55
10.67
11.25
11.17
10.42
9.10
7.51
5.95
4.66
3.73
3.09
2.57
1.93
1.00
-0.30
-1.95
-3.88
-5.96
-8.05
-10.02
-11.74
-13.13
-14.11
-14.66
-14.83
-14.77
-14.74
-15.09
-16.17
-18.16
-21.02
-24.32
-27.41
-29.53
-30.09
-28.77
-25.62
-20.98
-15.34
-9.20
-2.99
2.91
8.17
12.55
15.91
18.23
19.62
20.24
20.22
19.66
18.66
17.37
16.02
14.83
13.98
13.56
13.57
13.96
14.68
15.69
16.83
17.86
18.46
18.35
17.48
16.01
14.30
12.67
11.28
10.06
8.78
7.22
5.31
3.22
1.21
-0.47
-1.70
-2.61
-3.44
-4.43
-5.74
-7.36
-9.24
-11.31
-13.55
-15.91
-18.32
-20.62
-22.67
-24.44
-26.05
-27.67
-29.34
-30.83
-31.61
-31.09
-28.87
-24.94
-19.73
-13.86
-7.92
-2.28
2.92
7.63
11.69
14.79
16.60
16.96
16.06
14.47
12.94
12.09
12.17
13.02
14.20
15.27
15.98
16.30
16.39
16.34
16.19
15.85
15.26
14.45
13.52
12.61
11.78
10.98
10.02
8.75
7.10
5.14
3.04
1.03
-0.72
-2.19
-3.46
-4.66
-5.91
-7.23
-8.59
-9.97
-11.37
-12.85
-14.50
-16.33
-18.26
-20.20
-22.08
-23.93
-25.76
-27.43
-28.60
-28.76
-27.43
-24.39
-19.81
-14.21
-8.26
-2.48
2.79
7.44
11.45
14.81
17.43
19.19
20.09
20.19
19.66
18.70
17.53
16.34
15.30
14.57
14.24
14.32
14.74
15.34
15.92
16.28
16.20
15.59
14.39
12.70
10.75
8.85
7.33
6.40
6.13
6.35
6.73
6.83
6.32
5.03
3.03
0.59
-1.95
-4.28
-6.24
-7.80
-9.06
-10.14
-11.14
-12.14
-13.18
-14.34
-15.66
-17.23
-19.08
-21.22
-23.58
-25.97
-28.13
-29.70
-30.32
-29.77
-28.03
-25.27
-21.76
-17.78
-13.47
-8.86
-3.96
1.16
6.28
11.05
15.10
18.05
19.69
20.04
19.29
17.81
15.98
14.10
12.33
10.76
9.45
8.52
8.16
8.56
9.72
11.47
13.41
15.07
16.09
16.34
15.86
14.87
13.54
12.05
10.52
9.06
7.74
6.59
5.56
4.53
3.43
2.25
1.08
0.09
-0.60
-0.95
-1.06
-1.02
-0.94
-0.82
-0.64
-0.40
-0.15
-0.05
-0.26
-0.88
-1.86
-2.83
-2.99
-1.35
2.97
10.31
20.22
31.53
42.78
52.56
60.07
65.23
68.48
70.32
71.05
70.67
69.08
66.29
62.36
57.55
52.36
47.32
42.85
39.11
35.84
32.44
28.18
21.97
13.45
3.41
-6.54
-14.98
-21.15
-25.48
-28.87
-32.07
-36.22
-41.34
-46.24
-49.60
-51.11
-51.45
-52.24
-54.66
-58.81
-65.55
-74.91
-85.69
-96.17
-105.10
-111.42
-115.03
-116.21
-115.82
-117.71
-125.35
-139.51
-157.68
-175.43
-187.58
-191.12
-185.58
-159.96
-114.03
-59.11
-10.29
24.00
40.61
46.81
47.91
46.59
44.12
40.82
36.89
33.92
33.92
37.31
42.70
47.84
49.88
48.42
44.95
42.97
46.13
55.65
69.37
83.46
94.15
100.20
103.19
104.74
105.50
105.00
102.15
96.05
87.25
77.36
69.17
63.99
61.61
60.75
60.08
58.85
56.99
55.01
53.36
52.28
51.93
52.29
53.27
54.71
56.33
57.54
57.73
56.37
53.31
49.58
46.07
43.05
40.16
36.76
32.38
27.11
21.22
14.48
5.93
-5.67
-20.78
-37.96
-54.09
-65.50
-69.83
-67.45
-61.36
-55.87
-54.92
-60.51
-72.20
-87.58
-103.27
-116.09
-123.88
-125.80
-122.21
-114.30
-103.52
-91.41
-79.65
-70.07
-64.32
-63.18
-65.71
-69.10
-69.70
-64.59
-53.25
-37.99
-22.72
-11.04
-4.57
-2.62
-3.24
-4.53
-5.51
-6.22
-6.92
-7.51
-7.49
-6.43
-4.51
-2.61
-1.98
-3.53
-7.39
-12.79
-18.36
-22.65
-24.56
-23.61
-20.03
-14.51
-7.99
-1.39
4.57
9.56
13.50
16.60
19.05
20.95
22.23
22.73
22.30
20.97
18.90
16.45
14.06
12.05
10.50
9.34
8.47
7.88
7.74
8.20
9.50
11.79
14.78
17.74
19.75
20.05
18.33
14.78
9.87
4.68
0.60
-1.47
-1.60
-0.58
0.43
0.44
-0.94
-3.70
-6.64
-8.04
-6.86
-3.51
0.51
3.36
3.39
-0.41
-8.69
-20.40
-32.83
-42.53
-46.28
-41.65
-27.71
-5.66
23.75
53.54
74.68
82.73
79.81
70.86
60.05
49.52
39.95
31.55
24.30
18.82
16.10
16.07
17.03
16.69
13.44
6.89
-2.16
-12.61
-22.81
-31.18
-36.00
-37.06
-34.82
-29.85
-22.71
-14.12
-5.28
2.78
9.48
14.63
18.02
19.69
19.74
18.33
15.74
12.40
9.30
7.58
8.01
10.38
13.84
17.29
19.75
20.60
19.51
16.43
11.55
5.15
-2.54
-11.18
-20.46
-29.96
-39.05
-46.76
-51.74
-52.60
-48.42
-39.30
-26.39
-11.68
2.59
14.46
22.78
27.31
28.70
28.19
27.17
26.87
28.13
31.27
36.14
42.27
49.03
55.72
61.70
66.35
69.22
70.07
68.86
65.85
61.45
56.17
50.42
44.57
38.83
33.29
27.91
22.60
17.24
11.82
6.52
1.71
-2.11
-4.45
-5.02
-3.85
-1.39
1.50
3.71
4.08
1.77
-3.35
-10.51
-18.22
-24.70
-28.58
-29.35
-27.36
-23.51
-18.71
-13.51
-8.13
-2.72
2.45
7.07
11.05
14.61
18.18
21.88
25.14
26.69
25.13
19.78
11.28
1.55
-7.01
-12.56
-14.65
-14.26
-13.15
-12.86
-14.07
-16.43
-19.08
-21.37
-23.18
-24.89
-26.95
-29.56
-32.43
-35.06
-37.03
-38.29
-39.02
-39.44
-39.51
-39.03
-37.79
-35.84
-33.63
-31.82
-30.97
-31.32
-32.67
-34.55
-36.45
-38.01
-39.09
-39.72
-39.96
-39.83
-39.26
-38.11
-36.25
-33.64
-30.32
-26.39
-21.93
-17.05
-11.82
-6.38
-0.97
4.05
8.31
11.46
13.36
14.09
13.92
13.20
12.21
11.16
10.15
9.27
8.60
8.24
8.20
8.39
8.61
8.60
8.20
7.34
6.13
4.71
3.26
1.84
0.47
-0.97
-2.58
-4.47
-6.65
-9.06
-11.49
-13.68
-15.37
-16.41
-16.80
-16.74
-16.51
-16.43
-16.75
-17.59
-19.00
-20.93
-23.33
-26.05
-28.84
-31.27
-32.79
-32.95
-31.48
-28.48
-24.37
-19.72
-15.02
-10.56
-6.37
-2.33
1.68
5.63
9.34
12.45
14.60
15.44
14.81
12.78
9.71
6.26
3.23
1.31
0.86
1.74
3.41
5.14
6.30
6.62
6.17
5.25
4.17
3.16
2.28
1.50
0.77
0.02
-0.78
-1.71
-2.77
-3.91
-4.97
-5.71
-5.95
-5.63
-4.90
-4.10
-3.66
-3.92
-5.03
-6.88
-9.05
-10.93
-11.84
-11.25
-8.89
-4.85
0.48
6.54
12.69
18.36
23.09
26.56
28.60
29.17
28.39
26.53
23.93
20.94
17.79
14.56
11.25
7.87
4.69
2.25
1.22
2.08
4.71
8.26
11.33
12.55
11.21
7.66
3.31
0.09
-0.23
3.35
10.81
21.19
32.89
43.92
52.22
56.04
54.48
48.02
38.62
29.19
22.50
19.99
21.04
23.21
23.33
18.94
9.36
-4.23
-19.42
-33.67
-45.07
-52.60
-55.84
-54.81
-49.81
-41.71
-32.03
-22.73
-15.72
-12.19
-12.18
-14.62
-17.87
-20.28
-20.73
-18.83
-14.83
-9.45
-3.60
1.72
5.72
7.91
8.37
7.68
6.69
6.23
6.69
8.00
9.63
10.94
11.47
11.14
10.27
9.39
9.05
9.63
11.26
13.84
17.08
20.57
23.90
26.86
29.57
32.53
36.51
42.13
49.51
57.99
66.22
72.53
75.62
75.05
71.50
66.52
61.98
59.24
58.68
59.45
59.82
57.83
52.06
42.16
28.98
14.43
0.94
-9.09
-13.93
-12.89
-6.62
2.95
13.01
20.88
25.10
26.35
27.46
32.36
44.30
64.14
89.52
115.44
136.11
146.93
145.92
133.85
113.47
88.18
61.04
34.48
10.30
-10.04
-25.58
-36.09
-42.22
-45.37
-47.27
-49.32
-52.25
-56.08
-60.27
-64.15
-67.15
-68.96
-69.61
-69.43
-69.03
-69.22
-70.84
-74.38
-79.82
-86.40
-92.69
-97.02
-97.94
-94.81
-87.97
-78.76
-69.00
-60.48
-54.43
-51.25
-50.41
-50.75
-50.84
-49.55
-46.41
-41.78
-36.73
-32.51
-30.11
-29.80
-31.08
-32.86
-33.90
-33.16
-30.00
-24.26
-16.24
-6.59
3.80
14.07
23.59
32.19
40.21
48.30
57.22
67.56
79.41
92.31
105.18
116.60
125.22
130.27
131.79
130.62
127.86
124.26
119.74
113.47
104.22
91.09
73.88
53.19
30.11
5.87
-18.41
-41.66
-62.82
-80.70
-94.11
-102.16
-104.52
-101.61
-94.53
-84.85
-74.24
-64.09
-55.25
-47.91
-41.84
-36.65
-32.09
-28.15
-24.97
-22.57
-20.69
-18.87
-16.69
-13.99
-11.01
-8.21
-6.04
-4.66
-3.92
-3.51
-3.10
-2.56
-1.94
-1.41
-1.16
-1.37
-2.11
-3.43
-5.25
-7.42
-9.72
-11.91
-13.88
-15.61
-17.19
-18.69
-20.09
-21.25
-22.03
-22.34
-22.23
-21.92
-21.69
-21.88
-22.73
-24.38
-26.75
-29.51
-32.16
-34.03
-34.49
-33.15
-29.94
-25.14
-19.28
-13.01
-6.91
-1.48
2.91
6.03
7.89
8.66
8.72
8.51
8.38
8.46
8.65
8.76
8.69
8.54
8.59
9.09
10.06
11.29
12.38
12.99
12.91
12.15
10.79
8.90
6.60
4.07
1.61
-0.43
-1.70
-2.15
-2.00
-1.76
-1.99
-3.11
-5.29
-8.37
-11.94
-15.45
-18.43
-20.58
-21.96
-22.90
-23.88
-25.36
-27.51
-30.22
-33.08
-35.51
-36.90
-36.67
-34.44
-30.08
-23.85
-16.37
-8.51
-1.22
4.76
9.08
11.80
13.24
13.91
14.20
14.33
14.32
14.05
13.39
12.28
10.76
9.05
7.39
5.98
4.92
4.17
3.65
3.28
3.01
2.77
2.42
1.74
0.51
-1.37
-3.74
-6.19
-8.23
-9.50
-9.98
-10.02
-10.14
-10.84
-12.37
-14.65
-17.36
-20.05
-22.31
-23.81
-24.43
-24.24
-23.57
-22.93
-22.89
-23.74
-25.39
-27.25
-28.52
-28.42
-26.54
-22.92
-17.94
-12.14
-6.03
-0.00
5.59
10.39
14.02
16.15
16.66
15.74
13.87
11.68
9.78
8.56
8.15
8.40
9.02
9.72
10.30
10.73
11.06
11.36
11.71
12.14
12.57
12.85
12.78
12.17
10.91
9.00
6.56
3.69
0.49
-3.07
-6.97
-11.12
-15.34
-19.30
-22.76
-25.61
-28.06
-30.48
-33.30
-36.69
-40.44
-43.94
-46.30
-46.67
-44.45
-39.51
-32.20
-23.33
-13.90
-4.88
2.91
8.96
13.06
15.25
15.74
14.90
13.18
11.06
9.00
7.32
6.17
5.56
5.35
5.46
5.85
6.52
7.47
8.63
9.89
11.08
12.09
12.82
13.26
13.45
13.48
13.42
13.23
12.73
11.59
9.53
6.38
2.35
-2.10
-6.31
-9.71
-12.05
-13.41
-14.25
-15.19
-16.93
-19.91
-24.13
-29.04
-33.57
-36.42
-36.44
-33.07
-26.48
-17.50
-7.28
3.04
12.55
20.58
26.62
30.37
31.69
30.79
28.19
24.67
21.07
18.07
16.09
15.19
15.17
15.64
16.09
16.08
15.32
13.80
11.75
9.58
7.68
6.24
5.19
4.23
2.96
1.01
-1.80
-5.38
-9.35
-13.18
-16.31
-18.35
-19.17
-18.99
-18.24
-17.39
-16.95
-17.25
-18.52
-20.71
-23.48
-26.07
-27.45
-26.60
-22.87
-16.26
-7.43
2.55
12.56
21.68
29.41
35.53
40.02
42.98
44.56
44.95
44.39
43.09
41.24
39.03
36.62
34.22
32.02
30.19
28.83
28.02
27.75
27.83
27.99
27.83
26.98
25.28
22.82
19.91
16.90
13.99
11.16
8.21
4.92
1.20
-2.83
-6.98
-11.04
-14.89
-18.56
-22.11
-25.69
-29.58
-34.02
-39.18
-44.91
-50.54
-54.96
-56.80
-54.86
-48.60
-38.31
-25.05
-10.35
4.23
17.48
28.71
37.66
44.40
49.11
52.02
53.36
53.39
52.46
50.99
49.34
47.70
46.07
44.35
42.43
40.37
38.44
36.88
35.82
35.15
34.52
33.54
32.01
30.00
27.73
25.47
23.36
21.32
19.16
16.75
14.05
11.15
8.16
5.14
2.04
-1.32
-5.16
-9.70
-15.03
-21.00
-27.17
-32.79
-36.96
-38.75
-37.55
-33.10
-25.70
-16.10
-5.30
5.61
15.67
24.17
30.70
35.06
37.30
37.64
36.47
34.29
31.71
29.29
27.39
26.15
25.44
24.95
24.38
23.58
22.53
21.33
20.09
18.85
17.61
16.38
15.16
13.93
12.57
10.80
8.24
4.51
-0.59
-7.08
-14.68
-22.96
-31.38
-39.31
-46.19
-51.56
-55.24
-57.43
-58.75
-60.02
-61.98
-65.00
-68.81
-72.54
-74.92
-74.68
-70.96
-63.53
-52.86
-39.92
-25.93
-12.07
0.69
11.69
20.56
27.20
31.83
34.82
36.63
37.63
38.08
38.13
37.90
37.59
37.40
37.49
37.81
38.14
38.12
37.49
36.15
34.17
31.75
29.08
26.28
23.37
20.32
17.08
13.58
9.77
5.66
1.35
-3.02
-7.23
-11.21
-14.96
-18.65
-22.55
-26.92
-31.87
-37.29
-42.84
-47.88
-51.56
-52.98
-51.31
-46.09
-37.37
-25.83
-12.68
0.59
12.59
22.34
29.43
33.97
36.43
37.42
37.45
36.83
35.76
34.38
32.81
31.23
29.86
28.86
28.29
28.08
28.05
27.94
27.52
26.64
25.32
23.61
21.65
19.56
17.42
15.24
12.97
10.49
7.58
4.04
-0.34
-5.58
-11.58
-18.02
-24.51
-30.73
-36.52
-41.96
-47.33
-52.98
-59.11
-65.51
-71.55
-76.13
-77.97
-75.99
-69.67
-59.24
-45.65
-30.31
-14.79
-0.40
11.93
21.80
29.18
34.34
37.61
39.29
39.64
38.91
37.35
35.37
33.35
31.67
30.49
29.78
29.34
28.93
28.35
27.48
26.27
24.72
22.84
20.70
18.40
16.01
13.56
10.99
8.16
4.95
1.28
-2.84
-7.30
-11.94
-16.52
-20.81
-24.59
-27.83
-30.77
-33.88
-37.76
-42.68
-48.38
-53.97
-58.12
-59.53
-57.32
-51.32
-42.08
-30.62
-18.12
-5.77
5.43
14.75
21.79
26.50
29.23
30.53
30.93
30.79
30.24
29.30
28.09
26.81
25.81
25.35
25.51
26.10
26.75
27.07
26.74
25.64
23.81
21.41
18.74
16.13
13.83
11.91
10.24
8.56
6.53
3.97
0.78
-2.98
-7.32
-12.24
-17.77
-23.89
-30.44
-37.21
-43.95
-50.51
-56.70
-62.22
-66.48
-68.68
-67.95
-63.70
-55.89
-45.14
-32.56
-19.48
-7.13
3.62
12.29
18.66
22.72
24.57
24.48
22.92
20.61
18.43
17.20
17.45
19.28
22.37
26.09
29.73
32.71
34.69
35.59
35.50
34.61
33.13
31.20
28.91
26.28
23.30
19.94
16.24
12.23
7.97
3.52
-1.10
-5.83
-10.65
-15.53
-20.46
-25.54
-30.91
-36.66
-42.74
-48.74
-53.91
-57.19
-57.50
-54.12
-46.94
-36.59
-24.28
-11.47
0.51
10.78
19.02
25.37
30.21
33.92
36.70
38.54
39.31
38.88
37.33
34.96
32.32
30.00
28.45
27.80
27.85
28.20
28.43
28.27
27.61
26.49
24.98
23.09
20.81
18.05
14.70
10.66
5.83
0.23
-5.97
-12.45
-18.80
-24.67
-29.93
-34.70
-39.32
-44.23
-49.76
-55.97
-62.57
-68.82
-73.62
-75.71
-74.05
-68.11
-58.12
-45.02
-30.23
-15.23
-1.29
10.72
20.34
27.46
32.21
34.92
35.97
35.80
34.78
33.22
31.35
29.43
27.69
26.40
25.78
25.92
26.76
28.08
29.56
30.83
31.54
31.44
30.40
28.38
25.50
21.92
17.82
13.40
8.73
3.86
-1.28
-6.70
-12.35
-18.07
-23.59
-28.67
-33.20
-37.28
-41.23
-45.38
-49.78
-54.00
-57.04
-57.66
-54.72
-47.70
-36.88
-23.34
-8.59
5.84
18.67
29.08
36.70
41.50
43.71
43.79
42.31
39.90
37.13
34.42
32.04
30.13
28.66
27.62
26.90
26.40
26.01
25.61
25.10
24.36
23.31
21.90
20.14
18.09
15.83
13.37
10.66
7.62
4.19
0.36
-3.75
-7.94
-12.02
-15.89
-19.59
-23.39
-27.67
-32.72
-38.59
-44.83
-50.53
-54.46
-55.39
-52.40
-45.23
-34.35
-20.90
-6.39
7.64
19.97
29.90
37.22
42.11
44.87
45.81
45.23
43.45
40.96
38.35
36.23
34.99
34.67
34.96
35.38
35.45
34.94
33.89
32.53
31.12
29.74
28.23
26.22
23.27
19.11
13.68
7.22
0.12
-7.20
-14.43
-21.41
-28.00
-34.17
-39.91
-45.29
-50.42
-55.43
-60.18
-64.17
-66.51
-66.09
-62.01
-53.90
-42.22
-28.15
-13.25
0.98
13.48
23.73
31.67
37.46
41.21
42.99
42.88
41.15
38.35
35.21
32.41
30.37
29.09
28.29
27.56
26.60
25.30
23.72
21.98
20.19
18.33
16.34
14.09
11.44
8.28
4.60
0.55
-3.62
-7.56
-11.02
-13.87
-16.21
-18.27
-20.39
-22.93
-26.15
-30.21
-34.97
-39.92
-44.16
-46.57
-46.14
-42.31
-35.20
-25.57
-14.55
-3.30
7.31
16.78
24.89
31.49
36.43
39.55
40.79
40.34
38.68
36.41
34.19
32.45
31.28
30.50
29.74
28.62
26.99
24.90
22.58
20.31
18.31
16.64
15.21
13.82
12.14
9.77
6.38
1.76
-3.90
-10.11
-16.17
-21.48
-25.88
-29.74
-33.81
-38.85
-45.18
-52.48
-59.94
-66.52
-71.30
-73.66
-73.29
-70.09
-64.12
-55.67
-45.33
-34.03
-22.94
-13.23
-5.73
-0.78
1.86
2.81
2.80
2.45
2.11
1.92
1.96
2.27
2.94
4.03
5.53
7.39
9.60
12.29
15.67
19.89
24.81
29.90
34.31
37.11
37.64
35.73
31.68
26.06
19.57
12.75
5.99
-0.51
-6.62
-12.31
-17.63
-22.68
-27.56
-32.22
-36.39
-39.54
-40.96
-40.06
-36.58
-30.73
-23.29
-15.27
-7.74
-1.45
3.28
6.54
8.62
9.83
10.37
10.36
9.90
9.16
8.33
7.61
7.06
6.61
6.06
5.21
4.02
2.56
1.12
-0.03
-0.71
-0.96
-1.04
-1.33
-2.16
-3.70
-5.94
-8.69
-11.69
-14.73
-17.72
-20.59
-23.41
-26.27
-29.31
-32.68
-36.40
-40.27
-43.78
-46.15
-46.55
-44.37
-39.51
-32.36
-23.79
-14.81
-6.39
0.86
6.61
10.85
13.72
15.48
16.38
16.63
16.38
15.71
14.68
13.45
12.23
11.31
10.87
10.97
11.44
12.02
12.45
12.56
12.34
11.89
11.31
10.62
9.83
8.87
7.66
6.13
4.19
1.81
-1.01
-4.21
-7.79
-11.70
-16.00
-20.71
-25.80
-31.13
-36.45
-41.44
-45.78
-49.09
-50.98
-50.94
-48.49
-43.34
-35.61
-25.87
-15.10
-4.33
5.60
14.23
21.42
27.21
31.69
34.86
36.75
37.46
37.23
36.36
35.18
33.87
32.54
31.17
29.72
28.18
26.53
24.79
23.02
21.25
19.52
17.85
16.21
14.56
12.85
11.01
8.97
6.67
4.05
1.09
-2.15
-5.53
-8.89
-12.12
-15.25
-18.44
-22.00
-26.21
-31.21
-36.88
-42.73
-47.95
-51.49
-52.32
-49.75
-43.64
-34.56
-23.59
-12.05
-1.10
8.45
16.27
22.32
26.70
29.49
30.80
30.76
29.65
27.84
25.78
23.84
22.31
21.32
20.84
20.74
20.85
20.97
21.01
20.93
20.71
20.31
19.62
18.51
16.88
14.74
12.14
9.19
5.89
2.26
-1.69
-5.83
-9.96
-13.83
-17.31
-20.40
-23.27
-26.26
-29.72
-33.89
-38.75
-43.90
-48.50
-51.45
-51.71
-48.58
-41.98
-32.47
-21.00
-8.71
3.36
14.35
23.66
30.94
36.05
39.10
40.38
40.35
39.44
38.04
36.38
34.59
32.72
30.80
28.92
27.18
25.70
24.56
23.74
23.11
22.49
21.73
20.71
19.43
17.93
16.29
14.60
12.92
11.23
9.39
7.08
3.96
-0.18
-5.24
-10.77
-16.16
-20.94
-24.97
-28.57
-32.28
-36.64
-41.88
-47.82
-53.84
-59.05
-62.45
-63.11
-60.36
-54.01
-44.38
-32.32
-18.96
-5.47
7.17
18.27
27.46
34.66
39.99
43.66
46.00
47.33
47.95
48.06
47.77
47.07
45.90
44.23
42.10
39.67
37.20
34.97
33.15
31.69
30.35
28.75
26.63
23.91
20.77
17.47
14.28
11.27
8.32
5.21
1.76
-2.10
-6.21
-10.37
-14.32
-17.95
-21.29
-24.59
-28.15
-32.37
-37.57
-43.84
-50.97
-58.30
-64.80
-69.29
-70.67
-68.26
-61.99
-52.45
-40.69
-28.02
-15.58
-4.23
5.62
13.85
20.53
25.72
29.49
31.87
32.96
32.98
32.22
31.09
29.91
28.92
28.25
27.97
28.09
28.58
29.41
30.41
31.40
32.12
32.32
31.78
30.33
27.93
24.68
20.79
16.49
11.96
7.17
1.99
-3.70
-9.86
-16.19
-22.25
-27.64
-32.17
-36.05
-39.78
-43.89
-48.73
-54.16
-59.58
-64.02
-66.37
-65.71
-61.60
-54.09
-43.84
-31.87
-19.44
-7.65
2.63
10.98
17.32
21.84
24.81
26.45
26.98
26.58
25.53
24.18
22.85
21.76
20.97
20.43
20.03
19.71
19.52
19.57
19.93
20.53
21.11
21.34
20.92
19.71
17.83
15.52
13.07
10.58
7.97
5.04
1.62
-2.30
-6.51
-10.67
-14.52
-17.93
-20.94
-23.75
-26.65
-29.95
-33.94
-38.77
-44.29
-49.98
-54.90
-57.93
-58.04
-54.64
-47.72
-37.89
-26.14
-13.69
-1.68
9.02
17.90
24.78
29.80
33.22
35.34
36.42
36.68
36.33
35.58
34.67
33.71
32.80
31.96
31.22
30.65
30.30
30.17
30.13
29.95
29.41
28.26
26.42
23.87
20.68
16.99
13.00
8.94
4.97
1.14
-2.64
-6.51
-10.59
-14.87
-19.18
-23.32
-27.13
-30.59
-33.84
-37.16
-40.88
-45.24
-50.23
-55.45
-60.12
-63.17
-63.57
-60.63
-54.28
-45.03
-33.85
-21.80
-9.79
1.53
11.70
20.36
27.17
31.93
34.64
35.56
35.28
34.50
33.90
33.96
34.88
36.55
38.71
41.10
43.53
45.91
48.19
50.28
51.91
52.74
52.40
50.68
47.51
42.97
37.13
30.05
21.75
12.32
2.04
-8.62
-19.09
-28.73
-36.99
-43.43
-47.76
-49.84
-49.68
-47.54
-43.94
-39.60
-35.38
-32.09
-30.31
-30.22
-31.53
-33.45
-34.97
-35.07
-33.04
-28.70
-22.34
-14.61
-6.23
2.24
10.48
18.41
25.96
32.96
39.08
43.85
46.91
48.18
47.90
46.57
44.68
42.53
40.13
37.33
34.07
30.56
27.26
24.73
23.30
22.90
23.10
23.23
22.75
21.39
19.18
16.40
13.40
10.41
7.51
4.55
1.29
-2.55
-7.18
-12.58
-18.53
-24.59
-30.31
-35.36
-39.65
-43.36
-46.84
-50.55
-54.95
-60.27
-66.38
-72.59
-77.65
-80.05
-78.53
-72.54
-62.43
-49.44
-35.11
-20.84
-7.58
4.27
14.57
23.24
30.12
35.04
37.97
39.18
39.10
38.29
37.22
36.20
35.35
34.59
33.85
33.00
32.02
30.89
29.63
28.29
26.92
25.55
24.24
22.93
21.51
19.80
17.64
14.99
11.99
8.84
5.79
2.96
0.36
-2.08
-4.40
-6.62
-8.68
-10.56
-12.29
-14.01
-15.89
-18.16
-21.03
-24.65
-29.12
-34.37
-40.13
-45.84
-50.76
-54.08
-55.10
-53.40
-48.89
-41.83
-32.72
-22.23
-11.09
-0.05
10.16
18.87
25.50
29.69
31.35
30.74
28.40
25.04
21.41
18.07
15.42
13.59
12.59
12.23
12.33
12.69
13.13
13.55
13.92
14.20
14.39
14.50
14.51
14.41
14.17
13.74
13.06
12.07
10.68
8.84
6.50
3.60
0.10
-3.98
-8.48
-13.08
-17.42
-21.12
-24.06
-26.36
-28.42
-30.75
-33.83
-37.92
-42.95
-48.44
-53.50
-57.05
-57.97
-55.51
-49.51
-40.50
-29.61
-18.19
-7.50
1.65
8.97
14.61
18.94
22.29
24.85
26.67
27.70
27.98
27.66
27.00
26.27
25.70
25.38
25.33
25.56
26.08
26.86
27.82
28.75
29.40
29.51
28.96
27.78
26.13
24.17
22.05
19.85
17.59
15.31
13.03
10.70
8.17
5.22
1.64
-2.66
-7.53
-12.62
-17.40
-21.44
-24.52
-26.71
-28.41
-30.14
-32.38
-35.44
-39.37
-43.86
-48.25
-51.57
-52.74
-50.79
-45.25
-36.37
-25.06
-12.68
-0.64
9.95
18.47
24.78
29.04
31.60
32.80
33.00
32.44
31.35
29.84
28.03
26.03
23.97
22.05
20.42
19.19
18.43
18.15
18.29
18.71
19.24
19.68
19.87
19.69
19.12
18.16
16.79
15.06
12.99
10.64
8.12
5.57
3.10
0.77
-1.46
-3.76
-6.34
-9.39
-12.97
-16.96
-21.06
-24.97
-28.39
-31.27
-33.82
-36.42
-39.56
-43.58
-48.50
-53.85
-58.63
-61.60
-61.59
-57.96
-50.78
-40.84
-29.35
-17.54
-6.32
3.77
12.47
19.68
25.21
28.92
30.76
30.92
29.87
28.25
26.67
25.50
24.79
24.39
24.04
23.60
23.15
22.87
22.90
23.21
23.50
23.44
22.77
21.48
19.78
17.93
16.07
14.17
12.09
9.70
7.02
4.15
1.21
-1.76
-4.80
-8.00
-11.33
-14.65
-17.73
-20.40
-22.69
-24.79
-27.07
-29.87
-33.48
-37.94
-43.10
-48.54
-53.54
-57.20
-58.54
-56.73
-51.40
-42.72
-31.46
-18.78
-5.89
6.15
16.65
25.25
31.86
36.51
39.34
40.59
40.61
39.82
38.63
37.40
36.36
35.64
35.21
34.97
34.77
34.44
33.88
33.09
32.19
31.34
30.68
30.18
29.66
28.81
27.30
24.96
21.82
18.13
14.24
10.46
6.95
3.64
0.29
-3.45
-7.83
-12.88
-18.32
-23.68
-28.46
-32.35
-35.43
-38.09
-40.97
-44.64
-49.40
-55.16
-61.38
-67.07
-71.00
-71.91
-68.80
-61.29
-49.81
-35.53
-20.10
-5.23
7.81
18.37
26.42
32.36
36.67
39.74
41.77
42.85
43.07
42.60
41.70
40.59
39.48
38.43
37.47
36.62
35.94
35.56
35.56
35.90
36.35
36.58
36.26
35.20
33.38
30.98
28.22
25.28
22.28
19.24
16.16
12.96
9.57
5.93
1.98
-2.23
-6.59
-10.93
-15.10
-19.04
-22.84
-26.71
-30.92
-35.78
-41.47
-48.01
-55.04
-61.77
-66.97
-69.31
-67.68
-61.69
-51.78
-39.11
-25.13
-11.23
1.58
12.70
21.85
28.94
34.04
37.35
39.18
39.91
39.84
39.13
37.91
36.29
34.44
32.57
30.80
29.16
27.59
26.07
24.69
23.62
23.01
22.77
22.54
21.82
20.10
17.09
12.87
7.77
2.27
-3.22
-8.48
-13.53
-18.54
-23.65
-28.89
-34.02
-38.69
-42.52
-45.34
-47.26
-48.59
-49.79
-51.24
-53.23
-55.92
-59.38
-63.50
-67.88
-71.78
-74.10
-73.63
-69.46
-61.30
-49.64
-35.57
-20.48
-5.62
8.08
20.03
29.93
37.69
43.38
47.25
49.72
51.25
52.26
53.05
53.76
54.43
55.00
55.37
55.39
54.94
53.96
52.53
50.87
49.14
47.37
45.35
42.67
38.98
