1659771856.00
64.000000
-0.00
-0.00
-0.00
-0.00
-0.00
-0.00
-0.00
-0.00
-0.00
-0.00
0.00
0.01
0.01
-0.00
-0.03
-0.05
-0.05
0.00
0.13
0.36
0.66
1.01
1.37
1.72
2.06
2.40
2.79
3.24
3.80
4.42
5.06
5.67
6.21
6.68
7.15
7.67
8.30
9.14
10.10
11.08
11.94
12.61
13.11
13.60
14.30
15.38
17.11
19.35
21.82
24.23
26.38
28.29
30.26
32.72
36.02
40.58
46.09
52.03
57.78
62.90
67.38
71.65
76.42
82.29
89.93
98.92
108.47
117.60
125.54
132.10
137.81
144.01
149.64
157.26
167.72
181.18
196.22
209.54
216.36
211.78
192.50
158.05
111.42
56.93
-0.93
-59.24
-117.13
-175.07
-233.61
-292.38
-349.93
-403.97
-452.84
-495.52
-531.67
-561.01
-582.97
-596.64
-601.01
-595.35
-578.92
-551.09
-510.79
-456.88
-388.98
-308.53
-219.30
-127.01
-37.97
42.59
111.39
167.34
210.94
243.28
265.53
278.83
284.55
284.40
280.26
273.73
265.79
256.70
246.21
233.90
219.70
204.01
187.73
171.88
157.29
144.29
132.67
121.85
111.19
100.34
89.38
78.73
68.92
60.31
52.98
46.72
41.13
35.79
30.46
25.06
19.73
14.81
10.48
6.81
3.75
1.13
-1.19
-3.34
-5.30
-7.01
-8.37
-9.33
-9.90
-10.16
-10.20
-10.08
-9.83
-9.46
-9.03
-8.61
-8.29
-8.08
-7.88
-7.51
-6.83
-5.81
-4.59
-3.41
-2.50
-2.00
-1.87
-2.02
-2.32
-2.70
-3.11
-3.48
-3.72
-3.74
-3.52
-3.13
-2.72
-2.44
-2.35
-2.42
-2.56
-2.68
-2.72
-2.69
-2.60
-2.52
-2.48
-2.45
-2.44
-2.38
-2.22
-1.91
-1.43
-0.79
-0.05
0.69
1.32
1.71
1.78
1.53
1.03
0.44
-0.11
-0.51
-0.71
-0.75
-0.69
-0.58
-0.43
-0.26
-0.07
0.12
0.29
0.46
0.64
0.85
1.10
1.41
1.77
2.22
2.76
3.39
4.08
4.78
5.36
5.70
5.71
5.30
4.48
3.37
2.06
0.70
-0.58
-1.73
-2.76
-3.72
-4.65
-5.49
-6.15
-6.56
-6.67
-6.52
-6.21
-5.83
-5.46
-5.13
-4.85
-4.66
-4.59
-4.61
-4.66
-4.59
-4.25
-3.55
-2.52
-1.36
-0.34
0.29
0.44
0.15
-0.34
-0.82
-1.11
-1.22
-1.26
-1.41
-1.76
-2.24
-2.72
-2.98
-2.90
-2.46
-1.80
-1.12
-0.59
-0.32
-0.29
-0.40
-0.54
-0.58
-0.46
-0.14
0.36
1.03
1.83
2.75
3.74
4.71
5.59
6.29
6.77
7.01
7.01
6.63
5.82
4.57
2.92
0.98
-1.07
-3.06
-4.83
-6.28
-7.40
-8.23
-8.87
-9.45
-10.08
-10.86
-11.87
-13.17
-14.81
-16.78
-18.97
-21.09
-22.73
-23.39
-22.64
-20.31
-16.57
-11.91
-6.94
-2.17
2.19
6.24
10.26
14.48
18.93
23.41
27.62
31.32
34.42
36.86
38.48
38.85
37.40
33.63
27.46
19.40
10.48
1.96
-5.09
-10.07
-12.94
-14.09
-14.05
-13.28
-12.10
-10.72
-9.29
-8.06
-7.28
-7.22
-8.04
-9.79
-12.35
-15.46
-18.77
-21.84
-24.28
-25.80
-26.29
-25.79
-24.51
-22.68
-20.48
-18.08
-15.62
-13.25
-11.18
-9.62
-8.66
-8.20
-7.96
-7.50
-6.47
-4.62
-1.92
1.48
5.29
9.15
12.70
15.69
17.97
19.54
20.53
21.08
21.30
21.25
20.91
20.32
19.54
18.69
17.89
17.17
16.45
15.63
14.61
13.40
12.05
10.64
9.23
7.82
6.37
4.90
3.50
2.28
1.39
0.93
0.91
1.28
1.88
2.54
3.08
3.33
3.21
2.73
1.97
1.09
0.28
-0.27
-0.39
0.03
1.01
2.40
3.95
5.33
6.26
6.60
6.36
5.65
4.65
3.47
2.24
1.09
0.19
-0.32
-0.36
0.02
0.63
1.30
1.94
2.55
3.19
3.83
4.35
4.53
4.22
3.39
2.21
0.89
-0.33
-1.30
-2.01
-2.48
-2.77
-2.91
-2.91
-2.82
-2.76
-2.90
-3.38
-4.26
-5.44
-6.66
-7.63
-8.14
-8.15
-7.80
-7.33
-6.95
-6.71
-6.59
-6.54
-6.60
-6.89
-7.45
-8.21
-8.89
-9.18
-8.89
-8.11
-7.19
-6.57
-6.56
-7.11
-7.90
-8.45
-8.35
-7.42
-5.65
-3.18
-0.12
3.39
7.19
10.96
14.23
16.59
17.78
17.87
17.18
16.11
14.95
13.75
12.46
10.98
9.35
7.68
6.10
4.64
3.24
1.84
0.42
-0.91
-2.03
-2.89
-3.51
-4.04
-4.60
-5.28
-6.08
-6.97
-7.82
-8.48
-8.79
-8.58
-7.86
-6.75
-5.49
-4.33
-3.38
-2.64
-2.01
-1.42
-0.92
-0.59
-0.57
-0.84
-1.30
-1.78
-2.18
-2.52
-2.99
-3.74
-4.84
-6.14
-7.33
-8.03
-8.05
-7.39
-6.27
-5.01
-3.87
-2.96
-2.29
-1.83
-1.53
-1.37
-1.26
-1.06
-0.55
0.44
1.98
4.00
6.35
8.90
11.58
14.42
17.38
20.38
23.17
25.43
26.90
27.46
27.19
26.30
25.05
23.69
22.38
21.25
20.41
19.95
19.87
19.97
19.93
19.37
18.00
15.80
12.97
9.85
6.80
4.02
1.55
-0.61
-2.52
-4.19
-5.63
-6.86
-7.92
-8.83
-9.56
-10.03
-10.14
-9.89
-9.33
-8.60
-7.86
-7.20
-6.67
-6.20
-5.76
-5.32
-4.89
-4.46
-4.02
-3.50
-2.82
-1.97
-0.99
-0.04
0.73
1.19
1.31
1.12
0.72
0.15
-0.56
-1.44
-2.50
-3.68
-4.93
-6.15
-7.31
-8.44
-9.61
-10.83
-12.03
-13.10
-13.96
-14.63
-15.24
-16.00
-17.07
-18.44
-19.96
-21.39
-22.50
-23.17
-23.41
-23.38
-23.27
-23.25
-23.35
-23.48
-23.46
-23.04
-22.07
-20.48
-18.29
-15.62
-12.62
-9.57
-6.82
-4.82
-3.90
-4.18
-5.39
-6.96
-8.25
-8.88
-8.84
-8.48
-8.25
-8.42
-8.92
-9.46
-9.68
-9.39
-8.62
-7.58
-6.49
-5.48
-4.59
-3.87
-3.44
-3.52
-4.32
-5.94
-8.29
-11.07
-13.91
-16.46
-18.46
-19.79
-20.39
-20.28
-19.51
-18.17
-16.43
-14.46
-12.44
-10.47
-8.50
-6.38
-3.88
-0.82
2.85
7.01
11.37
15.65
19.74
23.72
27.79
32.17
36.88
41.70
46.20
49.81
51.93
51.97
49.50
44.38
36.89
27.83
18.31
9.41
1.89
-4.09
-8.82
-12.77
-16.29
-19.47
-22.16
-24.23
-25.66
-26.60
-27.23
-27.61
-27.62
-26.99
-25.49
-23.01
-19.65
-15.66
-11.33
-6.86
-2.35
2.25
7.02
12.01
17.18
22.36
27.28
31.63
35.12
37.52
38.72
38.71
37.64
35.69
33.09
30.03
26.66
23.10
19.48
15.97
12.74
9.95
7.74
6.17
5.21
4.72
4.51
4.36
4.10
3.69
3.17
2.68
2.29
1.99
1.65
1.15
0.38
-0.59
-1.63
-2.59
-3.40
-4.05
-4.64
-5.24
-5.87
-6.52
-7.14
-7.71
-8.21
-8.63
-8.94
-9.08
-9.01
-8.65
-8.00
-7.08
-5.91
-4.57
-3.14
-1.71
-0.40
0.66
1.42
1.83
1.90
1.72
1.41
1.09
0.85
0.72
0.62
0.47
0.15
-0.36
-0.97
-1.54
-1.94
-2.10
-2.07
-1.98
-2.00
-2.25
-2.71
-3.26
-3.71
-3.89
-3.71
-3.17
-2.34
-1.32
-0.20
0.98
2.16
3.27
4.21
4.88
5.16
4.99
4.41
3.56
2.59
1.68
0.95
0.45
0.16
0.01
-0.09
-0.22
-0.43
-0.74
-1.14
-1.61
-2.10
-2.58
-3.02
-3.38
-3.58
-3.53
-3.15
-2.41
-1.35
-0.13
1.08
2.14
2.98
3.59
4.01
4.28
4.38
4.27
3.93
3.38
2.70
2.01
1.41
0.95
0.60
0.28
-0.07
-0.47
-0.90
-1.29
-1.62
-1.89
-2.12
-2.34
-2.52
-2.56
-2.37
-1.89
-1.17
-0.34
0.41
0.95
1.23
1.32
1.33
1.35
1.42
1.50
1.53
1.44
1.22
0.92
0.58
0.24
-0.09
-0.45
-0.87
-1.38
-1.95
-2.53
-3.06
-3.51
-3.84
-4.07
-4.19
-4.23
-4.18
-4.02
-3.71
-3.21
-2.47
-1.51
-0.39
0.77
1.88
2.84
3.60
4.16
4.49
4.59
4.42
3.98
3.29
2.44
1.57
0.79
0.20
-0.14
-0.25
-0.19
-0.11
-0.16
-0.47
-1.05
-1.83
-2.67
-3.43
-4.02
-4.38
-4.48
-4.27
-3.72
-2.87
-1.81
-0.69
0.32
1.18
1.91
2.55
3.14
3.60
3.82
3.69
3.20
2.45
1.65
0.97
0.47
0.13
-0.15
-0.46
-0.83
-1.24
-1.60
-1.87
-2.06
-2.23
-2.48
-2.87
-3.40
-4.00
-4.50
-4.76
-4.64
-4.11
-3.24
-2.16
-1.02
0.05
1.01
1.85
2.60
3.27
3.84
4.24
4.42
4.33
4.00
3.50
2.93
2.33
1.74
1.15
0.54
-0.06
-0.61
-1.07
-1.40
-1.64
-1.83
-2.07
-2.39
-2.86
-3.44
-4.05
-4.55
-4.75
-4.47
-3.67
-2.45
-1.02
0.37
1.54
2.43
3.07
3.50
3.74
3.79
3.66
3.40
3.11
2.86
2.63
2.37
1.96
1.34
0.56
-0.24
-0.90
-1.31
-1.48
-1.55
-1.71
-2.10
-2.79
-3.67
-4.54
-5.18
-5.40
-5.16
-4.49
-3.52
-2.32
-1.01
0.35
1.62
2.68
3.39
3.74
3.81
3.74
3.66
3.59
3.49
3.25
2.81
2.19
1.50
0.85
0.33
-0.04
-0.31
-0.53
-0.74
-0.96
-1.18
-1.38
-1.57
-1.78
-2.03
-2.38
-2.81
-3.29
-3.71
-3.92
-3.80
-3.23
-2.23
-0.89
0.60
2.03
3.20
3.99
4.36
4.32
3.96
3.40
2.75
2.12
1.53
1.02
0.58
0.21
-0.08
-0.29
-0.45
-0.60
-0.79
-1.09
-1.52
-2.08
-2.70
-3.33
-3.89
-4.32
-4.54
-4.48
-4.05
-3.23
-2.08
-0.78
0.46
1.42
2.01
2.31
2.45
2.63
2.88
3.12
3.16
2.88
2.26
1.44
0.64
0.02
-0.38
-0.66
-0.94
-1.27
-1.62
-1.91
-2.12
-2.30
-2.55
-2.95
-3.47
-4.02
-4.41
-4.48
-4.14
-3.40
-2.33
-1.07
0.26
1.53
2.65
3.50
4.04
4.24
4.12
3.78
3.32
2.84
2.39
1.97
1.51
0.95
0.29
-0.42
-1.06
-1.51
-1.72
-1.75
-1.71
-1.74
-1.95
-2.39
-3.03
-3.73
-4.35
-4.68
-4.59
-4.03
-3.04
-1.78
-0.41
0.93
2.16
3.20
4.01
4.52
4.69
4.54
4.13
3.61
3.05
2.53
2.03
1.52
0.99
0.47
0.02
-0.31
-0.52
-0.67
-0.83
-1.12
-1.60
-2.30
-3.15
-4.00
-4.64
-4.89
-4.65
-3.90
-2.77
-1.41
0.02
1.41
2.68
3.77
4.63
5.20
5.41
5.24
4.71
3.94
3.03
2.15
1.42
0.92
0.67
0.59
0.55
0.42
0.09
-0.46
-1.19
-2.03
-2.91
-3.76
-4.51
-5.11
-5.46
-5.49
-5.14
-4.43
-3.43
-2.24
-0.94
0.42
1.77
3.05
4.11
4.82
5.11
5.01
4.63
4.16
3.70
3.27
2.82
2.26
1.59
0.90
0.32
-0.03
-0.16
-0.19
-0.29
-0.60
-1.15
-1.87
-2.65
-3.40
-4.06
-4.61
-4.96
-5.00
-4.60
-3.69
-2.30
-0.61
1.09
2.54
3.53
4.03
4.12
3.95
3.69
3.42
3.17
2.86
2.45
1.89
1.21
0.48
-0.19
-0.75
-1.19
-1.56
-1.89
-2.19
-2.46
-2.69
-2.93
-3.25
-3.73
-4.36
-5.02
-5.45
-5.41
-4.73
-3.42
-1.63
0.35
2.25
3.83
4.96
5.60
5.77
5.57
5.07
4.39
3.59
2.74
1.87
1.05
0.36
-0.14
-0.42
-0.52
-0.53
-0.57
-0.78
-1.23
-1.96
-2.93
-4.03
-5.07
-5.84
-6.15
-5.89
-5.05
-3.74
-2.12
-0.42
1.20
2.56
3.59
4.25
4.57
4.61
4.47
4.21
3.85
3.38
2.72
1.90
0.96
0.04
-0.71
-1.19
-1.42
-1.53
-1.72
-2.13
-2.82
-3.73
-4.72
-5.63
-6.36
-6.81
-6.92
-6.62
-5.86
-4.64
-3.05
-1.25
0.55
2.18
3.58
4.76
5.80
6.81
7.81
8.80
9.73
10.63
11.57
12.72
14.26
16.31
18.82
21.58
24.24
26.44
27.88
28.40
27.98
26.65
24.52
21.71
18.39
14.78
11.14
7.70
4.66
2.10
0.01
-1.64
-2.93
-3.98
-4.89
-5.82
-6.91
-8.23
-9.80
-11.50
-13.19
-14.73
-16.04
-17.14
-18.03
-18.69
-19.07
-19.10
-18.77
-18.16
-17.46
-16.84
-16.45
-16.34
-16.49
-16.90
-17.54
-18.38
-19.35
-20.31
-21.13
-21.72
-22.10
-22.36
-22.61
-22.95
-23.40
-23.95
-24.58
-25.26
-25.96
-26.63
-27.23
-27.74
-28.15
-28.45
-28.51
-28.15
-27.12
-25.27
-22.64
-19.44
-15.97
-12.45
-8.89
-5.17
-1.14
3.22
7.68
11.89
15.49
18.37
20.69
22.92
25.61
29.16
33.66
38.78
43.86
48.17
51.19
52.84
53.51
53.91
54.72
56.33
58.62
61.04
62.78
63.00
60.97
56.25
48.79
39.02
27.90
16.76
6.92
-0.73
-6.10
-9.77
-12.69
-15.66
-18.93
-22.23
-24.99
-26.71
-27.19
-26.51
-24.88
-22.47
-19.43
-15.93
-12.28
-8.91
-6.25
-4.56
-3.84
-3.85
-4.21
-4.58
-4.75
-4.69
-4.45
-4.17
-3.93
-3.76
-3.69
-3.72
-3.88
-4.18
-4.63
-5.17
-5.74
-6.31
-6.91
-7.56
-8.22
-8.81
-9.14
-9.07
-8.52
-7.62
-6.60
-5.73
-5.20
-5.08
-5.27
-5.62
-6.00
-6.40
-6.88
-7.56
-8.51
-9.72
-11.09
-12.53
-13.97
-15.44
-16.95
-18.46
-19.87
-21.00
-21.78
-22.25
-22.53
-22.74
-22.86
-22.69
-21.93
-20.35
-17.92
-14.81
-11.35
-7.84
-4.46
-1.25
1.77
4.62
7.22
9.47
11.27
12.59
13.44
13.89
14.05
14.04
14.04
14.22
14.73
15.58
16.67
17.77
18.65
19.18
19.35
19.28
19.09
18.81
18.37
17.64
16.51
14.99
13.21
11.37
9.66
8.20
7.03
6.12
5.42
4.90
4.52
4.26
4.07
3.94
3.86
3.87
3.98
4.18
4.45
4.71
4.86
4.82
4.51
3.94
3.16
2.26
1.30
0.31
-0.73
-1.89
-3.20
-4.60
-5.94
-6.97
-7.46
-7.23
-6.26
-4.59
-2.41
0.05
2.52
4.77
6.57
7.81
8.42
8.41
7.83
6.69
5.05
3.00
0.72
-1.52
-3.42
-4.77
-5.52
-5.87
-6.12
-6.63
-7.61
-9.08
-10.89
-12.76
-14.38
-15.46
-15.79
-15.25
-13.82
-11.60
-8.81
-5.67
-2.44
0.72
3.70
6.44
8.93
11.15
13.08
14.69
15.90
16.56
16.51
15.65
14.00
11.75
9.20
6.60
4.15
1.95
0.10
-1.27
-1.99
-1.95
-1.25
-0.21
0.74
1.23
1.08
0.38
-0.67
-1.78
-2.76
-3.49
-3.86
-3.82
-3.37
-2.56
-1.54
-0.51
0.36
0.98
1.32
1.44
1.45
1.42
1.40
1.40
1.37
1.29
1.12
0.85
0.50
0.10
-0.31
-0.72
-1.14
-1.57
-2.00
-2.43
-2.83
-3.23
-3.60
-3.95
-4.19
-4.25
-4.04
-3.47
-2.61
-1.57
-0.53
0.34
0.97
1.37
1.62
1.79
1.87
1.82
1.61
1.24
0.78
0.35
0.02
-0.21
-0.41
-0.68
-1.08
-1.58
-2.10
-2.54
-2.84
-3.04
-3.25
-3.54
-3.92
-4.29
-4.49
-4.33
-3.73
-2.74
-1.50
-0.22
0.92
1.80
2.36
2.63
2.64
2.44
2.09
1.66
1.23
0.84
0.53
0.29
0.08
-0.13
-0.38
-0.69
-1.06
-1.49
-2.00
-2.57
-3.18
-3.79
-4.29
-4.57
-4.53
-4.10
-3.28
-2.16
-0.87
0.43
1.58
2.45
2.99
3.21
3.15
2.89
2.51
2.10
1.74
1.46
1.29
1.18
1.06
0.85
0.47
-0.08
-0.76
-1.47
-2.11
-2.61
-2.98
-3.28
-3.58
-3.92
-4.24
-4.45
-4.44
-4.11
-3.45
-2.48
-1.30
-0.03
1.16
2.13
2.77
3.08
3.12
3.01
2.88
2.77
2.65
2.46
2.09
1.53
0.82
0.04
-0.69
-1.28
-1.70
-1.97
-2.17
-2.40
-2.76
-3.25
-3.80
-4.27
-4.48
-4.32
-3.73
-2.80
-1.66
-0.48
0.59
1.48
2.16
2.66
3.02
3.31
3.55
3.71
3.73
3.53
3.10
2.47
1.73
0.97
0.26
-0.43
-1.12
-1.81
-2.49
-3.07
-3.52
-3.83
-4.04
-4.21
-4.32
-4.34
-4.20
-3.84
-3.22
-2.34
-1.26
-0.06
1.12
2.12
2.77
3.02
2.91
2.60
2.27
2.03
1.85
1.67
1.37
0.98
0.56
0.22
0.02
-0.08
-0.21
-0.49
-0.97
-1.64
-2.41
-3.19
-3.86
-4.35
-4.59
-4.56
-4.23
-3.63
-2.78
-1.73
-0.52
0.77
2.03
3.12
3.90
4.32
4.38
4.19
3.88
3.56
3.26
2.95
2.58
2.13
1.58
0.95
0.25
-0.44
-1.09
-1.63
-2.06
-2.43
-2.81
-3.28
-3.85
-4.41
-4.77
-4.75
-4.27
-3.35
-2.15
-0.85
0.40
1.52
2.44
3.11
3.52
3.66
3.60
3.40
3.14
2.83
2.44
1.95
1.41
0.87
0.43
0.10
-0.14
-0.37
-0.69
-1.14
-1.75
-2.49
-3.28
-4.02
-4.56
-4.81
-4.69
-4.21
-3.42
-2.36
-1.06
0.47
2.17
3.89
5.37
6.33
6.60
6.20
5.31
4.22
3.20
2.42
1.91
1.59
1.32
0.97
0.49
-0.10
-0.69
-1.19
-1.53
-1.70
-1.79
-1.91
-2.20
-2.70
-3.36
-4.06
-4.62
-4.85
-4.58
-3.78
-2.52
-0.96
0.68
2.20
3.47
4.43
5.06
5.36
5.35
5.01
4.40
3.60
2.72
1.89
1.22
0.75
0.46
0.25
0.04
-0.23
-0.58
-1.02
-1.54
-2.15
-2.84
-3.62
-4.40
-5.01
-5.26
-5.00
-4.19
-2.92
-1.43
0.03
1.29
2.25
2.95
3.41
3.65
3.66
3.42
2.99
2.50
2.11
1.93
1.95
2.03
1.98
1.63
0.97
0.13
-0.68
-1.29
-1.68
-1.94
-2.24
-2.74
-3.44
-4.21
-4.85
-5.13
-4.94
-4.29
-3.27
-2.01
-0.66
0.69
1.93
2.96
3.69
4.05
4.05
3.75
3.30
2.81
2.39
2.06
1.80
1.57
1.31
0.97
0.49
-0.08
-0.69
-1.22
-1.59
-1.78
-1.91
-2.14
-2.61
-3.30
-4.00
-4.42
-4.28
-3.53
-2.30
-0.90
0.38
1.38
2.09
2.59
2.96
3.20
3.28
3.18
2.92
2.61
2.33
2.11
1.88
1.54
1.03
0.43
-0.10
-0.39
-0.42
-0.33
-0.41
-0.90
-1.86
-3.11
-4.31
-5.10
-5.28
-4.84
-3.91
-2.67
-1.26
0.22
1.65
2.91
3.87
4.43
4.59
4.44
4.11
3.73
3.37
3.01
2.61
2.15
1.62
1.08
0.56
0.08
-0.35
-0.75
-1.15
-1.56
-1.99
-2.46
-2.98
-3.53
-4.02
-4.32
-4.27
-3.78
-2.85
-1.59
-0.18
1.20
2.41
3.33
3.91
4.11
3.96
3.53
2.97
2.46
2.09
1.90
1.79
1.65
1.38
1.00
0.58
0.24
0.02
-0.13
-0.33
-0.73
-1.41
-2.35
-3.37
-4.25
-4.74
-4.68
-4.04
-2.91
-1.50
-0.04
1.30
2.38
3.17
3.68
3.92
3.92
3.68
3.22
2.63
2.00
1.42
0.97
0.64
0.39
0.18
-0.03
-0.22
-0.39
-0.56
-0.78
-1.10
-1.57
-2.19
-2.92
-3.62
-4.18
-4.44
-4.32
-3.79
-2.89
-1.73
-0.43
0.85
1.96
2.79
3.27
3.40
3.24
2.93
2.60
2.31
2.11
1.93
1.73
1.45
1.08
0.62
0.08
-0.55
-1.23
-1.89
-2.49
-2.97
-3.36
-3.67
-3.92
-4.08
-4.05
-3.76
-3.15
-2.27
-1.22
-0.11
0.95
1.89
2.67
3.25
3.58
3.66
3.48
3.10
2.60
2.02
1.45
0.94
0.54
0.27
0.11
0.00
-0.14
-0.42
-0.87
-1.50
-2.26
-3.10
-3.92
-4.61
-5.01
-4.99
-4.45
-3.40
-1.96
-0.35
1.16
2.38
3.25
3.77
4.04
4.12
4.02
3.71
3.17
2.44
1.65
0.96
0.46
0.19
0.08
-0.01
-0.18
-0.52
-1.02
-1.66
-2.36
-3.08
-3.73
-4.27
-4.60
-4.69
-4.51
-4.10
-3.52
-2.80
-1.97
-1.03
-0.00
1.06
2.01
2.71
3.03
2.92
2.44
1.71
0.87
0.03
-0.77
-1.50
-2.13
-2.66
-3.08
-3.43
-3.79
-4.23
-4.81
-5.52
-6.35
-7.24
-8.06
-8.63
-8.75
-8.25
-7.05
-5.28
-3.18
-1.04
0.96
2.75
4.41
6.04
7.69
9.27
10.61
11.54
12.00
12.07
11.89
11.55
11.03
10.20
8.95
7.34
5.63
4.28
3.71
4.10
5.34
7.04
8.76
10.26
11.49
12.58
13.66
14.75
15.75
16.49
16.81
16.67
16.14
15.31
14.26
13.03
11.61
10.01
8.27
6.48
4.77
3.24
1.94
0.82
-0.22
-1.30
-2.46
-3.61
-4.60
-5.26
-5.52
-5.44
-5.12
-4.75
-4.45
-4.30
-4.32
-4.48
-4.74
-5.03
-5.31
-5.49
-5.52
-5.36
-5.04
-4.64
-4.27
-4.05
-4.04
-4.18
-4.37
-4.50
-4.45
-4.20
-3.79
-3.30
-2.82
-2.42
-2.13
-1.94
-1.85
-1.81
-1.83
-1.93
-2.15
-2.48
-2.88
-3.25
-3.51
-3.60
-3.56
-3.45
-3.36
-3.32
-3.31
-3.25
-3.08
-2.76
-2.35
-1.91
-1.58
-1.45
-1.59
-1.98
-2.46
-2.87
-3.04
-2.94
-2.72
-2.64
-2.91
-3.60
-4.55
-5.44
-5.99
-6.06
-5.74
-5.25
-4.77
-4.32
-3.74
-2.81
-1.38
0.48
2.54
4.48
6.03
7.03
7.39
7.07
6.08
4.38
2.06
-0.67
-3.45
-5.83
-7.49
-8.37
-8.68
-8.81
-9.07
-9.57
-10.13
-10.48
-10.38
-9.85
-9.08
-8.41
-8.03
-7.99
-8.11
-8.20
-8.12
-7.82
-7.31
-6.57
-5.58
-4.31
-2.84
-1.32
0.04
1.11
1.82
2.22
2.39
2.36
2.14
1.73
1.21
0.68
0.30
0.14
0.20
0.39
0.57
0.62
0.52
0.30
0.02
-0.25
-0.50
-0.78
-1.12
-1.58
-2.07
-2.47
-2.62
-2.38
-1.74
-0.78
0.28
1.26
2.00
2.45
2.64
2.67
2.60
2.50
2.41
2.32
2.21
2.08
1.94
1.78
1.60
1.39
1.13
0.87
0.66
0.54
0.51
0.49
0.34
-0.05
-0.71
-1.56
-2.41
-3.08
-3.42
-3.38
-2.96
-2.23
-1.28
-0.22
0.85
1.79
2.49
2.90
3.02
2.91
2.68
2.43
2.24
2.12
2.02
1.89
1.69
1.43
1.14
0.83
0.49
0.08
-0.41
-0.94
-1.41
-1.75
-1.96
-2.11
-2.27
-2.48
-2.73
-2.89
-2.84
-2.49
-1.84
-0.96
0.04
1.03
1.89
2.54
2.92
3.05
2.99
2.85
2.69
2.54
2.33
2.02
1.55
0.96
0.33
-0.23
-0.61
-0.77
-0.75
-0.64
-0.56
-0.65
-1.02
-1.68
-2.57
-3.48
-4.21
-4.55
-4.36
-3.65
-2.50
-1.09
0.38
1.74
2.85
3.61
3.99
4.04
3.83
3.49
3.14
2.84
2.63
2.46
2.30
2.09
1.79
1.38
0.82
0.14
-0.63
-1.38
-2.03
-2.50
-2.80
-2.98
-3.12
-3.26
-3.35
-3.28
-2.92
-2.19
-1.14
0.09
1.31
2.37
3.15
3.67
4.00
4.22
4.37
4.43
4.32
3.98
3.41
2.67
1.89
1.18
0.58
0.09
-0.34
-0.78
-1.22
-1.70
-2.19
-2.71
-3.23
-3.70
-3.99
-4.01
-3.72
-3.13
-2.33
-1.41
-0.42
0.62
1.67
2.67
3.53
4.17
4.55
4.70
4.69
4.58
4.40
4.14
3.77
3.28
2.70
2.05
1.38
0.71
0.06
-0.56
-1.15
-1.71
-2.25
-2.79
-3.34
-3.85
-4.29
-4.54
-4.53
-4.19
-3.47
-2.41
-1.05
0.47
2.00
3.35
4.38
5.02
5.26
5.14
4.77
4.21
3.56
2.91
2.36
1.98
1.77
1.63
1.40
0.94
0.23
-0.62
-1.40
-1.91
-2.09
-2.04
-1.99
-2.15
-2.60
-3.26
-3.90
-4.26
-4.14
-3.46
-2.32
-0.92
0.54
1.85
2.90
3.65
4.12
4.35
4.35
4.13
3.69
3.07
2.37
1.70
1.17
0.84
0.66
0.55
0.43
0.21
-0.11
-0.51
-0.97
-1.45
-1.96
-2.51
-3.06
-3.56
-3.91
-4.00
-3.71
-2.99
-1.84
-0.39
1.19
2.68
3.92
4.78
5.21
5.26
4.98
4.46
3.80
3.13
2.53
2.09
1.80
1.59
1.33
0.88
0.21
-0.62
-1.44
-2.09
-2.48
-2.66
-2.78
-3.03
-3.47
-4.03
-4.49
-4.60
-4.22
-3.33
-2.06
-0.61
0.83
2.13
3.23
4.09
4.68
4.95
4.88
4.53
3.98
3.37
2.80
2.32
1.89
1.48
1.05
0.58
0.09
-0.43
-0.96
-1.50
-2.01
-2.47
-2.86
-3.20
-3.49
-3.75
-3.95
-4.03
-3.85
-3.34
-2.43
-1.20
0.19
1.55
2.69
3.55
4.12
4.49
4.74
4.88
4.91
4.78
4.44
3.93
3.30
2.64
2.01
1.45
0.94
0.47
0.03
-0.41
-0.89
-1.44
-2.07
-2.77
-3.48
-4.10
-4.55
-4.74
-4.59
-4.04
-3.08
-1.78
-0.27
1.24
2.54
3.50
4.04
4.23
4.20
4.07
3.91
3.74
3.51
3.15
2.64
2.01
1.31
0.64
0.03
-0.51
-1.00
-1.44
-1.80
-2.04
-2.14
-2.20
-2.37
-2.78
-3.44
-4.20
-4.76
-4.79
-4.12
-2.82
-1.14
0.59
2.09
3.22
3.95
4.31
4.36
4.18
3.89
3.59
3.38
3.25
3.10
2.80
2.27
1.54
0.73
-0.05
-0.71
-1.25
-1.68
-1.99
-2.18
-2.29
-2.41
-2.71
-3.26
-4.02
-4.73
-5.10
-4.90
-4.10
-2.88
-1.52
-0.22
0.90
1.86
2.66
3.30
3.69
3.76
3.48
2.93
2.27
1.69
1.29
1.11
1.04
0.92
0.64
0.17
-0.39
-0.89
-1.23
-1.43
-1.67
-2.15
-2.96
-3.99
-4.97
-5.54
-5.42
-4.57
-3.13
-1.39
0.32
1.76
2.83
3.50
3.84
3.89
3.68
3.26
2.67
2.00
1.37
0.86
0.52
0.30
0.09
-0.24
-0.76
-1.44
-2.17
-2.82
-3.30
-3.61
-3.84
-4.09
-4.37
-4.61
-4.67
-4.40
-3.73
-2.70
-1.45
-0.13
1.09
2.12
2.90
3.43
3.75
3.90
3.92
3.81
3.54
3.11
2.56
1.99
1.50
1.14
0.88
0.62
0.25
-0.28
-0.93
-1.64
-2.34
-3.03
-3.71
-4.41
-5.07
-5.57
-5.76
-5.49
-4.68
-3.36
-1.69
0.09
1.69
2.90
3.63
3.93
3.95
3.87
3.81
3.77
3.70
3.53
3.22
2.76
2.20
1.56
0.86
0.09
-0.75
-1.60
-2.38
-3.03
-3.53
-3.91
-4.25
-4.62
-4.97
-5.20
-5.16
-4.73
-3.88
-2.67
-1.26
0.20
1.59
2.82
3.83
4.55
4.93
4.96
4.67
4.20
3.68
3.22
2.85
2.52
2.14
1.63
0.96
0.19
-0.59
-1.30
-1.92
-2.49
-3.08
-3.74
-4.47
-5.16
-5.69
-5.89
-5.67
-4.99
-3.87
-2.42
-0.80
0.83
2.28
3.44
4.23
4.68
4.83
4.72
4.37
3.82
3.12
2.40
1.77
1.31
1.00
0.75
0.45
0.02
-0.55
-1.20
-1.88
-2.58
-3.27
-3.96
-4.60
-5.08
-5.27
-5.07
-4.43
-3.39
-2.03
-0.47
1.14
2.67
4.02
5.08
5.81
6.16
6.14
5.79
5.21
4.51
3.81
3.17
2.58
2.00
1.35
0.61
-0.21
-1.08
-1.94
-2.77
-3.53
-4.23
-4.83
-5.33
-5.70
-5.89
-5.84
-5.49
-4.79
-3.75
-2.43
-0.96
0.51
1.88
3.06
4.01
4.67
4.99
4.94
4.56
3.96
3.32
2.79
2.43
2.20
1.99
1.73
1.38
1.02
0.70
0.43
0.10
-0.40
-1.15
-2.06
-2.92
-3.46
-3.46
-2.85
-1.72
-0.26
1.33
2.85
4.18
5.20
5.84
6.08
5.91
5.39
4.60
3.64
2.68
1.87
1.33
1.12
1.17
1.32
1.39
1.24
0.85
0.28
-0.35
-0.98
-1.64
-2.36
-3.18
-4.00
-4.64
-4.88
-4.55
-3.62
-2.20
-0.52
1.14
2.52
3.48
3.98
4.12
4.03
3.85
3.61
3.30
2.87
2.30
1.67
1.10
0.71
0.52
0.44
0.32
0.03
-0.47
-1.12
-1.82
-2.46
-3.04
-3.55
-3.97
-4.20
-4.12
-3.64
-2.80
-1.76
-0.72
0.19
0.94
1.63
2.32
3.02
3.61
3.93
3.85
3.41
2.73
2.02
1.41
0.96
0.61
0.24
-0.23
-0.83
-1.52
-2.20
-2.82
-3.35
-3.82
-4.26
-4.67
-4.94
-4.92
-4.47
-3.50
-2.08
-0.41
1.23
2.57
3.45
3.87
3.93
3.82
3.68
3.58
3.47
3.29
2.94
2.40
1.69
0.89
0.06
-0.72
-1.40
-1.91
-2.21
-2.33
-2.34
-2.41
-2.63
-3.03
-3.51
-3.86
-3.89
-3.50
-2.70
-1.63
-0.43
0.77
1.89
2.84
3.56
3.95
3.97
3.62
3.00
2.23
1.42
0.63
-0.13
-0.82
-1.35
-1.67
-1.78
-1.82
-1.98
-2.48
-3.34
-4.42
-5.42
-6.06
-6.19
-5.84
-5.15
-4.29
-3.32
-2.23
-0.97
0.42
1.82
3.03
3.86
4.22
4.15
3.78
3.25
2.72
2.24
1.83
1.44
1.02
0.55
0.02
-0.51
-1.01
-1.47
-1.93
-2.48
-3.15
-3.90
-4.56
-4.94
-4.88
-4.37
-3.52
-2.54
-1.59
-0.75
0.02
0.79
1.58
2.33
2.89
3.10
2.90
2.33
1.53
0.68
-0.04
-0.58
-0.96
-1.27
-1.62
-2.07
-2.66
-3.35
-4.10
-4.87
-5.59
-6.17
-6.47
-6.38
-5.80
-4.76
-3.35
-1.76
-0.18
1.21
2.28
3.00
3.41
3.62
3.77
3.93
4.14
4.32
4.41
4.33
4.10
3.73
3.29
2.77
2.14
1.33
0.36
-0.70
-1.75
-2.64
-3.27
-3.53
-3.41
-2.87
-1.94
-0.72
0.64
1.94
2.96
3.62
3.91
3.94
3.87
3.80
3.76
3.66
3.41
2.95
2.31
1.60
0.95
0.43
0.01
-0.39
-0.84
-1.34
-1.85
-2.32
-2.73
-3.06
-3.34
-3.53
-3.59
-3.41
-2.93
-2.14
-1.04
0.30
1.79
3.29
4.64
5.64
6.16
6.12
5.56
4.60
3.42
2.20
1.11
0.30
-0.09
-0.00
0.53
1.34
2.20
2.84
3.05
2.73
1.92
0.78
-0.47
-1.59
-2.33
-2.54
-2.15
-1.20
0.20
1.89
3.68
5.37
6.74
7.65
7.97
7.68
6.87
5.68
4.32
2.99
1.86
1.02
0.49
0.23
0.15
0.15
0.14
0.04
-0.16
-0.46
-0.83
-1.22
-1.58
-1.81
-1.81
-1.47
-0.76
0.26
1.43
2.54
3.44
4.06
4.45
4.66
4.69
4.52
4.09
3.41
2.56
1.69
0.91
0.27
-0.27
-0.75
-1.20
-1.57
-1.83
-1.97
-2.02
-2.04
-2.05
-2.00
-1.80
-1.37
-0.70
0.08
0.84
1.41
1.70
1.71
1.49
1.12
0.66
0.18
-0.26
-0.56
-0.68
-0.60
-0.39
-0.21
-0.21
-0.55
-1.22
-2.16
-3.21
-4.20
-5.00
-5.48
-5.55
-5.16
-4.31
-3.10
-1.72
-0.37
0.74
1.50
1.90
1.98
1.81
1.48
1.10
0.76
0.55
0.49
0.54
0.59
0.54
0.37
0.12
-0.13
-0.35
-0.63
-1.11
-1.87
-2.88
-3.93
-4.71
-4.94
-4.48
-3.42
-1.97
-0.40
1.07
2.30
3.22
3.79
3.97
3.79
3.35
2.82
2.42
2.31
2.51
2.89
3.22
3.29
2.98
2.28
1.34
0.31
-0.67
-1.50
-2.17
-2.65
-2.89
-2.87
-2.51
-1.85
-0.98
-0.02
0.85
1.54
2.01
2.29
2.40
2.35
2.10
1.68
1.10
0.46
-0.14
-0.65
-1.05
-1.36
-1.61
-1.85
-2.12
-2.48
-2.96
-3.60
-4.34
-5.08
-5.66
-5.94
-5.83
-5.35
-4.53
-3.48
-2.28
-1.06
0.08
1.04
1.72
2.10
2.19
2.03
1.73
1.36
0.93
0.45
-0.12
-0.80
-1.57
-2.33
-2.98
-3.48
-3.84
-4.14
-4.46
-4.83
-5.13
-5.19
-4.83
-3.97
-2.69
-1.18
0.32
1.63
2.66
3.40
3.88
4.13
4.11
3.80
3.22
2.45
1.64
0.93
0.39
0.04
-0.22
-0.48
-0.80
-1.20
-1.62
-2.02
-2.42
-2.85
-3.33
-3.82
-4.16
-4.14
-3.63
-2.58
-1.16
0.40
1.82
2.93
3.68
4.12
4.35
4.44
4.48
4.50
4.52
4.50
4.38
4.06
3.51
2.72
1.78
0.78
-0.21
-1.21
-2.25
-3.36
-4.44
-5.32
-5.81
-5.76
-5.20
-4.27
-3.21
-2.23
-1.43
-0.80
-0.26
0.27
0.80
1.26
1.56
1.62
1.42
1.03
0.53
0.02
-0.43
-0.79
-1.07
-1.33
-1.61
-1.96
-2.40
-2.94
-3.59
-4.36
-5.24
-6.11
-6.83
-7.18
-7.01
-6.29
-5.09
-3.61
-2.06
-0.61
0.68
1.80
2.81
3.72
4.53
5.22
5.74
6.06
6.22
6.29
6.40
6.73
7.40
8.43
9.80
11.40
13.08
14.76
16.34
17.71
18.71
19.12
18.71
17.33
14.93
11.61
7.54
2.95
-1.95
-6.97
-11.89
-16.49
-20.56
-23.95
-26.68
-28.92
-30.93
-32.97
-35.18
-37.51
-39.76
-41.65
-42.90
-43.27
-42.61
-40.79
-37.82
-33.86
-29.16
-24.01
-18.57
-12.79
-6.49
0.52
8.23
16.30
24.22
31.39
37.34
41.79
44.61
45.64
44.73
41.84
37.14
31.12
24.55
18.22
12.75
8.51
5.57
3.91
3.41
3.91
5.12
6.65
7.98
8.61
8.15
6.40
3.41
-0.54
-4.98
-9.33
-13.05
-15.76
-17.37
-18.09
-18.29
-18.33
-18.42
-18.53
-18.44
-17.96
-16.97
-15.53
-13.74
-11.73
-9.56
-7.21
-4.66
-1.97
0.63
2.85
4.40
5.15
5.22
4.95
4.76
5.01
5.83
7.15
8.69
10.20
11.51
12.55
13.38
14.02
14.52
14.84
14.95
14.85
14.54
14.04
13.36
12.50
11.47
10.31
9.12
8.02
7.09
6.35
5.72
5.09
4.35
3.48
2.54
1.65
0.89
0.34
-0.05
-0.36
-0.73
-1.29
-2.08
-3.07
-4.12
-5.03
-5.55
-5.50
-4.77
-3.38
-1.47
0.70
2.81
4.62
5.93
6.72
7.05
7.07
6.90
6.61
6.20
5.67
5.05
4.42
3.83
3.28
2.72
2.05
1.23
0.30
-0.61
-1.38
-1.96
-2.37
-2.69
-3.02
-3.40
-3.87
-4.40
-5.00
-5.68
-6.44
-7.26
-8.06
-8.71
-9.03
-8.84
-8.05
-6.72
-5.04
-3.26
-1.60
-0.15
1.11
2.25
3.29
4.17
4.77
5.01
4.91
4.61
4.29
4.06
3.93
3.83
3.69
3.50
3.34
3.30
3.41
3.65
3.91
4.07
4.04
3.82
3.41
2.84
2.14
1.32
0.42
-0.50
-1.34
-1.98
-2.34
-2.35
-1.98
-1.28
-0.32
0.83
2.07
3.35
4.63
5.89
7.06
8.06
8.73
8.94
8.66
7.98
7.10
6.26
5.60
5.07
4.54
3.85
2.97
2.04
1.26
0.79
0.67
0.78
0.96
1.10
1.17
1.26
1.44
1.75
2.16
2.56
2.77
2.65
2.09
1.14
0.01
-0.98
-1.58
-1.72
-1.57
-1.42
-1.52
-1.96
-2.58
-3.18
-3.61
-3.92
-4.24
-4.75
-5.49
-6.40
-7.36
-8.24
-8.93
-9.39
-9.59
-9.51
-9.16
-8.60
-7.88
-7.05
-6.15
-5.15
-4.04
-2.86
-1.71
-0.65
0.28
1.12
1.95
2.83
3.71
4.44
4.80
4.55
3.58
1.92
-0.19
-2.40
-4.30
-5.62
-6.26
-6.38
-6.21
-6.03
-5.98
-6.02
-6.06
-5.96
-5.61
-4.97
-4.11
-3.16
-2.41
-2.18
-2.72
-4.09
-6.05
-8.10
-9.61
-10.07
-9.25
-7.22
-4.34
-1.08
2.11
4.92
7.22
9.02
10.46
11.62
12.51
13.01
12.99
12.38
11.26
9.81
8.22
6.62
4.98
3.25
1.41
-0.43
-2.05
-3.25
-3.90
-4.02
-3.74
-3.19
-2.44
-1.54
-0.52
0.53
1.45
2.03
2.14
1.79
1.13
0.38
-0.20
-0.50
-0.49
-0.26
0.06
0.38
0.62
0.79
0.85
0.83
0.72
0.52
0.27
0.03
-0.18
-0.31
-0.41
-0.55
-0.81
-1.22
-1.75
-2.29
-2.74
-3.03
-3.21
-3.39
-3.68
-4.14
-4.70
-5.20
-5.45
-5.32
-4.78
-3.90
-2.84
-1.78
-0.81
0.02
0.72
1.32
1.84
2.25
2.52
2.63
2.57
2.40
2.15
1.86
1.56
1.30
1.10
0.97
0.84
0.63
0.24
-0.36
-1.13
-1.98
-2.79
-3.52
-4.20
-4.85
-5.45
-5.90
-6.00
-5.60
-4.67
-3.32
-1.80
-0.39
0.77
1.65
2.36
3.00
3.60
4.08
4.31
4.23
3.90
3.48
3.13
2.91
2.77
2.62
2.36
1.98
1.56
1.19
0.94
0.77
0.61
0.35
-0.11
-0.80
-1.70
-2.71
-3.68
-4.45
-4.89
-4.96
-4.69
-4.15
-3.42
-2.51
-1.44
-0.25
0.98
2.11
3.01
3.61
3.89
3.92
3.74
3.42
3.01
2.54
2.05
1.60
1.20
0.87
0.58
0.31
0.06
-0.17
-0.38
-0.58
-0.80
-1.08
-1.47
-2.00
-2.66
-3.41
-4.17
-4.82
-5.25
-5.37
-5.13
-4.58
-3.76
-2.79
-1.75
-0.69
0.35
1.32
2.18
2.86
3.29
3.41
3.24
2.84
2.36
1.91
1.57
1.36
1.24
1.13
1.01
0.85
0.67
0.49
0.31
0.09
-0.18
-0.53
-0.94
-1.41
-1.87
-2.27
-2.54
-2.62
-2.50
-2.18
-1.69
-1.08
-0.37
0.47
1.46
2.61
3.85
5.02
5.91
6.34
6.23
5.66
4.85
4.05
3.46
3.11
2.89
2.63
2.21
1.59
0.85
0.08
-0.62
-1.22
-1.74
-2.24
-2.75
-3.30
-3.89
-4.47
-4.95
-5.28
-5.40
-5.30
-5.02
-4.54
-3.84
-2.88
-1.67
-0.28
1.09
2.23
2.99
3.32
3.32
3.16
2.97
2.81
2.68
2.55
2.41
2.21
1.95
1.60
1.14
0.59
0.02
-0.49
-0.90
-1.18
-1.43
-1.74
-2.18
-2.77
-3.44
-4.10
-4.65
-4.99
-5.04
-4.74
-4.08
-3.12
-1.94
-0.69
0.50
1.51
2.24
2.67
2.83
2.77
2.59
2.35
2.11
1.83
1.49
1.04
0.50
-0.07
-0.55
-0.87
-1.02
-1.07
-1.13
-1.30
-1.62
-2.08
-2.62
-3.16
-3.62
-3.94
-4.06
-3.96
-3.64
-3.14
-2.50
-1.77
-0.97
-0.10
0.76
1.55
2.17
2.60
2.86
3.01
3.13
3.20
3.18
3.00
2.61
2.05
1.43
0.85
0.39
0.08
-0.14
-0.34
-0.58
-0.90
-1.32
-1.83
-2.41
-3.04
-3.65
-4.18
-4.53
-4.61
-4.39
-3.87
-3.10
-2.20
-1.26
-0.34
0.50
1.24
1.84
2.28
2.53
2.62
2.61
2.55
2.48
2.39
2.23
1.93
1.49
0.93
0.37
-0.09
-0.41
-0.63
-0.84
-1.15
-1.59
-2.14
-2.69
-3.18
-3.54
-3.80
-3.98
-4.05
-3.95
-3.58
-2.91
-1.97
-0.88
0.26
1.32
2.26
3.03
3.58
3.89
3.95
3.79
3.48
3.12
2.76
2.42
2.10
1.77
1.43
1.10
0.78
0.50
0.24
-0.02
-0.32
-0.69
-1.13
-1.68
-2.33
-3.07
-3.84
-4.54
-5.00
-5.10
-4.71
-3.84
-2.59
-1.13
0.32
1.60
2.61
3.34
3.82
4.11
4.25
4.25
4.11
3.81
3.37
2.85
2.29
1.75
1.28
0.89
0.61
0.41
0.27
0.15
-0.00
-0.24
-0.58
-1.02
-1.56
-2.16
-2.82
-3.53
-4.24
-4.84
-5.20
-5.17
-4.72
-3.86
-2.75
-1.50
-0.25
0.95
2.04
2.96
3.63
3.98
4.01
3.77
3.37
2.96
2.61
2.37
2.20
2.02
1.75
1.32
0.70
-0.02
-0.71
-1.21
-1.45
-1.45
-1.34
-1.34
-1.63
-2.31
-3.29
-4.36
-5.19
-5.49
-5.11
-4.09
-2.65
-1.11
0.27
1.35
2.14
2.75
3.24
3.63
3.85
3.88
3.73
3.46
3.14
2.77
2.35
1.87
1.35
0.85
0.41
0.04
-0.31
-0.70
-1.15
-1.59
-1.93
-2.11
-2.21
-2.37
-2.77
-3.49
-4.40
-5.22
-5.64
-5.41
-4.52
-3.13
-1.50
0.10
1.49
2.56
3.31
3.73
3.86
3.75
3.49
3.17
2.86
2.59
2.36
2.15
1.92
1.63
1.24
0.73
0.14
-0.45
-0.97
-1.38
-1.76
-2.23
-2.88
-3.69
-4.50
-5.09
-5.25
-4.91
-4.15
-3.13
-2.02
-0.91
0.16
1.18
2.13
2.96
3.59
4.00
4.19
4.20
4.08
3.91
3.70
3.45
3.13
2.67
2.02
1.22
0.36
-0.41
-0.92
-1.15
-1.20
-1.29
-1.64
-2.34
-3.30
-4.30
-5.13
-5.63
-5.79
-5.63
-5.18
-4.45
-3.43
-2.16
-0.75
0.67
1.96
3.04
3.84
4.34
4.50
4.33
3.87
3.21
2.49
1.84
1.34
1.03
0.88
0.80
0.74
0.61
0.39
0.07
-0.32
-0.74
-1.17
-1.61
-2.04
-2.46
-2.84
-3.12
-3.26
-3.21
-2.92
-2.33
-1.44
-0.29
0.99
2.21
3.21
3.89
4.25
4.33
4.21
3.94
3.54
3.03
2.39
1.67
0.89
0.09
-0.67
-1.32
-1.79
-2.05
-2.13
-2.14
-2.21
-2.44
-2.79
-3.19
-3.51
-3.68
-3.72
-3.72
-3.71
-3.63
-3.29
-2.46
-1.04
0.86
2.92
4.75
6.03
6.67
6.79
6.56
6.16
5.64
5.00
4.24
3.45
2.73
2.21
1.86
1.59
1.26
0.77
0.12
-0.61
-1.30
-1.86
-2.27
-2.62
-2.98
-3.42
-3.95
-4.49
-4.93
-5.19
-5.23
-5.10
-4.84
-4.42
-3.76
-2.76
-1.37
0.30
2.01
3.48
4.48
4.98
5.07
4.92
4.66
4.33
3.95
3.51
3.04
2.60
2.24
1.93
1.64
1.35
1.05
0.78
0.53
0.25
-0.17
-0.79
-1.63
-2.60
-3.54
-4.30
-4.78
-4.92
-4.73
-4.17
-3.26
-2.04
-0.60
0.88
2.20
3.21
3.88
4.24
4.39
4.40
4.28
4.01
3.60
3.09
2.57
2.10
1.71
1.38
1.04
0.70
0.36
0.06
-0.24
-0.63
-1.23
-2.12
-3.22
-4.35
-5.27
-5.81
-5.92
-5.65
-5.09
-4.31
-3.29
-1.98
-0.43
1.25
2.82
4.03
4.71
4.82
4.49
3.92
3.30
2.74
2.29
1.92
1.57
1.23
0.91
0.64
0.43
0.27
0.09
-0.19
-0.67
-1.39
-2.33
-3.43
-4.56
-5.55
-6.24
-6.47
-6.15
-5.28
-3.98
-2.43
-0.81
0.72
2.04
3.11
3.88
4.31
4.35
4.00
3.33
2.46
1.63
1.00
0.67
0.57
0.53
0.36
-0.05
-0.65
-1.28
-1.71
-1.85
-1.76
-1.63
-1.73
-2.19
-2.98
-3.89
-4.64
-4.99
-4.82
-4.14
-3.04
-1.66
-0.11
1.49
3.03
4.39
5.44
6.09
6.33
6.23
5.91
5.48
4.98
4.41
3.73
2.94
2.09
1.26
0.55
0.05
-0.20
-0.23
-0.09
0.08
0.16
0.03
-0.35
-0.93
-1.59
-2.20
-2.64
-2.78
-2.56
-1.95
-0.99
0.23
1.52
2.67
3.51
4.00
4.20
4.25
4.23
4.16
3.95
3.52
2.84
1.99
1.13
0.41
-0.07
-0.35
-0.52
-0.73
-1.05
-1.47
-1.94
-2.39
-2.83
-3.27
-3.78
-4.36
-4.94
-5.36
-5.45
-5.08
-4.25
-3.07
-1.74
-0.44
0.69
1.58
2.19
2.53
2.60
2.43
2.06
1.56
1.00
0.44
-0.10
-0.63
-1.16
-1.65
-2.07
-2.39
-2.60
-2.76
-2.93
-3.20
-3.63
-4.23
-5.00
-5.85
-6.69
-7.33
-7.61
-7.34
-6.44
-4.95
-3.05
-1.00
0.93
2.53
3.74
4.55
5.01
5.17
5.05
4.70
4.18
3.58
3.01
2.55
2.20
1.90
1.55
1.09
0.49
-0.19
-0.87
-1.46
-1.93
-2.33
-2.79
-3.40
-4.17
-4.97
-5.55
-5.68
-5.23
-4.21
-2.80
-1.22
0.35
1.79
3.03
4.01
4.71
5.06
5.04
4.70
4.09
3.31
2.43
1.55
0.75
0.12
-0.26
-0.39
-0.34
-0.28
-0.37
-0.73
-1.33
-2.08
-2.85
-3.56
-4.19
-4.71
-5.07
-5.13
-4.74
-3.80
-2.35
-0.64
1.04
2.39
3.32
3.90
4.25
4.49
4.61
4.50
4.09
3.39
2.57
1.83
1.36
1.17
1.15
1.09
0.84
0.34
-0.36
-1.19
-2.05
-2.91
-3.75
-4.54
-5.27
-5.88
-6.27
-6.31
-5.82
-4.72
-3.04
-0.96
1.18
3.03
4.33
5.03
5.27
5.25
5.11
4.85
4.40
3.69
2.76
1.75
0.85
0.18
-0.22
-0.38
-0.37
-0.24
-0.14
-0.23
-0.79
-2.04
-4.07
-6.77
-9.78
-12.66
-14.98
-16.43
-16.84
-16.17
-14.49
-11.99
-8.98
-5.80
-2.78
-0.14
2.03
3.72
4.96
5.77
6.19
6.30
6.23
6.10
5.99
5.90
5.73
5.39
4.86
4.17
3.41
2.61
1.76
0.79
-0.35
-1.62
-2.86
-3.87
-4.41
-4.34
-3.63
-2.38
-0.76
1.00
2.72
4.26
5.55
6.55
7.23
7.56
7.50
7.08
6.34
5.41
4.42
3.51
2.76
2.23
1.90
1.71
1.57
1.37
1.04
0.52
-0.17
-1.01
-1.90
-2.75
-3.40
-3.72
-3.55
-2.83
-1.57
0.04
1.79
3.45
4.88
6.06
6.99
7.69
8.06
8.00
7.40
6.29
4.83
3.26
1.82
0.63
-0.32
-1.14
-1.92
-2.69
-3.40
-3.96
-4.38
-4.76
-5.25
-5.94
-6.79
-7.56
-7.93
-7.65
-6.67
-5.12
-3.30
-1.47
0.22
1.73
3.10
4.30
5.22
5.70
5.61
5.00
4.02
2.92
1.91
1.09
0.44
-0.09
-0.53
-0.87
-1.10
-1.28
-1.55
-2.09
-2.99
-4.18
-5.43
-6.43
-6.94
-6.84
-6.16
-5.05
-3.65
-2.05
-0.26
1.66
3.62
5.43
6.87
7.74
7.96
7.61
6.83
5.84
4.82
3.88
3.08
2.47
2.07
1.91
1.95
2.12
2.30
2.35
2.19
1.73
0.98
-0.03
-1.17
-2.21
-2.91
-3.01
-2.36
-0.98
0.97
3.25
5.64
7.94
10.04
11.84
13.27
14.23
14.70
14.76
14.55
14.27
14.05
13.95
13.97
14.03
14.10
14.15
14.19
14.20
14.13
13.79
13.00
11.55
9.30
6.26
2.62
-1.33
-5.21
-8.67
-11.42
-13.32
-14.35
-14.60
-14.24
-13.48
-12.56
-11.66
-10.92
-10.39
-10.08
-9.96
-9.98
-10.10
-10.31
-10.61
-10.98
-11.40
-11.81
-12.15
-12.35
-12.40
-12.37
-12.38
-12.60
-13.10
-13.88
-14.80
-15.66
-16.25
-16.42
-16.06
-15.17
-13.81
-12.04
-9.97
-7.70
-5.36
-3.08
-0.99
0.81
2.26
3.39
4.26
4.92
5.46
5.88
6.20
6.37
6.37
6.16
5.72
5.07
4.25
3.34
2.42
1.52
0.63
-0.31
-1.32
-2.40
-3.47
-4.45
-5.21
-5.62
-5.54
-4.82
-3.36
-1.20
1.45
4.23
6.74
8.65
9.86
10.44
10.65
10.71
10.76
10.78
10.64
10.22
9.46
8.42
7.24
6.08
5.04
4.15
3.38
2.70
2.11
1.57
1.02
0.36
-0.48
-1.49
-2.51
-3.28
-3.55
-3.15
-2.06
-0.45
1.45
3.37
5.07
6.34
7.06
7.21
6.91
6.36
5.81
5.40
5.14
4.91
4.53
3.91
3.10
2.26
1.56
1.07
0.71
0.33
-0.22
-0.99
-1.89
-2.81
-3.64
-4.34
-4.91
-5.32
-5.49
-5.30
-4.59
-3.34
-1.62
0.37
2.38
4.17
5.56
6.47
6.87
6.79
6.28
5.41
4.28
3.02
1.78
0.70
-0.09
-0.56
-0.75
-0.79
-0.81
-0.88
-1.07
-1.36
-1.78
-2.34
-3.09
-4.02
-5.08
-6.09
-6.79
-6.95
-6.43
-5.22
-3.48
-1.45
0.64
2.59
4.29
5.65
6.64
7.18
7.25
6.88
6.17
5.28
4.38
3.56
2.85
2.19
1.53
0.85
0.15
-0.51
-1.05
-1.48
-1.81
-2.14
-2.56
-3.16
-3.96
-4.89
-5.81
-6.51
-6.80
-6.51
-5.56
-4.02
-2.03
0.15
2.24
4.00
5.26
5.97
6.20
6.08
5.73
5.21
4.54
3.72
2.80
1.89
1.14
0.65
0.43
0.40
0.37
0.22
-0.14
-0.65
-1.23
-1.81
-2.35
-2.91
-3.54
-4.25
-4.94
-5.45
-5.54
-5.06
-3.98
-2.40
-0.54
1.33
3.00
4.31
5.18
5.61
5.64
5.35
4.82
4.11
3.30
2.45
1.61
0.83
0.15
-0.43
-0.94
-1.41
-1.86
-2.30
-2.73
-3.18
-3.73
-4.44
-5.36
-6.42
-7.41
-8.04
-8.02
-7.22
-5.69
-3.68
-1.55
0.39
1.97
3.17
4.06
4.74
5.24
5.50
5.42
4.96
4.15
3.13
2.06
1.11
0.36
-0.18
-0.58
-0.89
-1.14
-1.36
-1.56
-1.81
-2.18
-2.78
-3.59
-4.52
-5.35
-5.86
-5.84
-5.21
-3.99
-2.28
-0.26
1.83
3.74
5.23
6.13
6.39
6.10
5.44
4.59
3.71
2.88
2.09
1.31
0.49
-0.33
-1.12
-1.79
-2.30
-2.63
-2.80
-2.90
-3.03
-3.32
-3.82
-4.55
-5.41
-6.19
-6.65
-6.56
-5.78
-4.31
-2.29
0.01
2.30
4.31
5.86
6.85
7.31
7.29
6.87
6.15
5.19
4.11
3.02
2.07
1.32
0.79
0.42
0.15
-0.09
-0.31
-0.56
-0.88
-1.37
-2.09
-3.06
-4.16
-5.20
-5.95
-6.20
-5.90
-5.04
-3.73
-2.07
-0.19
1.75
3.62
5.23
6.44
7.16
7.38
7.13
6.53
5.73
4.85
4.02
3.29
2.69
2.20
1.76
1.34
0.93
0.52
0.15
-0.21
-0.60
-1.03
-1.55
-2.14
-2.76
-3.31
-3.67
-3.69
-3.23
-2.23
-0.75
1.00
2.75
4.25
5.36
6.05
6.39
6.44
6.20
5.68
4.86
3.85
2.77
1.76
0.89
0.15
-0.52
-1.17
-1.83
-2.50
-3.18
-3.91
-4.78
-5.80
-6.96
-8.15
-9.22
-9.96
-10.18
-9.76
-8.66
-7.00
-5.01
-2.99
-1.14
0.45
1.80
2.96
3.92
4.56
4.75
4.44
3.75
2.91
2.19
1.67
1.27
0.79
0.11
-0.78
-1.72
-2.50
-3.00
-3.21
-3.27
-3.36
-3.65
-4.18
-4.90
-5.67
-6.28
-6.51
-6.21
-5.32
-3.86
-2.00
0.07
2.12
3.94
5.38
6.34
6.77
6.67
6.11
5.25
4.30
3.48
2.91
2.58
2.36
2.07
1.59
0.91
0.16
-0.51
-1.02
-1.41
-1.83
-2.44
-3.31
-4.36
-5.44
-6.33
-6.86
-6.95
-6.59
-5.79
-4.58
-3.02
-1.21
0.70
2.48
3.91
4.86
5.30
5.33
5.11
4.77
4.43
4.08
3.67
3.13
2.38
1.43
0.40
-0.56
-1.24
-1.55
-1.55
-1.47
-1.54
-1.93
-2.63
-3.50
-4.39
-5.18
-5.87
-6.43
-6.79
-6.78
-6.20
-4.94
-3.12
-0.98
1.15
3.02
4.50
5.55
6.20
6.45
6.29
5.73
4.83
3.71
2.55
1.50
0.70
0.18
-0.09
-0.24
-0.38
-0.64
-1.02
-1.50
-1.96
-2.37
-2.74
-3.16
-3.73
-4.49
-5.36
-6.14
-6.57
-6.46
-5.73
-4.49
-2.91
-1.21
0.46
1.98
3.31
4.39
5.15
5.51
5.47
5.11
4.57
4.03
3.60
3.29
3.04
2.75
2.32
1.74
1.02
0.24
-0.53
-1.23
-1.80
-2.24
-2.59
-2.91
-3.30
-3.83
-4.49
-5.19
-5.76
-6.01
-5.74
-4.85
-3.33
-1.30
0.99
3.24
5.15
6.51
7.25
7.42
7.12
6.49
5.63
4.64
3.63
2.71
1.95
1.34
0.82
0.28
-0.37
-1.09
-1.79
-2.32
-2.62
-2.75
-2.81
-2.98
-3.35
-3.93
-4.60
-5.15
-5.37
-5.06
-4.14
-2.71
-0.96
0.81
2.36
3.54
4.38
4.94
5.33
5.58
5.65
5.45
4.94
4.14
3.17
2.20
1.35
0.73
0.30
-0.01
-0.30
-0.61
-0.90
-1.15
-1.34
-1.51
-1.78
-2.22
-2.84
-3.53
-4.10
-4.32
-4.07
-3.31
-2.15
-0.75
0.71
2.08
3.24
4.10
4.61
4.74
4.53
4.09
3.51
2.92
2.38
1.88
1.35
0.73
-0.01
-0.79
-1.47
-1.93
-2.14
-2.20
-2.29
-2.59
-3.14
-3.86
-4.54
-4.98
-5.04
-4.68
-3.97
-3.01
-1.91
-0.74
0.42
1.52
2.56
3.51
4.31
4.88
5.13
5.00
4.51
3.75
2.86
1.94
1.01
0.07
-0.85
-1.63
-2.15
-2.33
-2.22
-2.02
-1.99
-2.30
-2.98
-3.90
-4.86
-5.64
-6.12
-6.21
-5.89
-5.12
-3.92
-2.35
-0.52
1.40
3.20
4.66
5.67
6.18
6.30
6.16
5.90
5.56
5.14
4.55
3.80
2.92
2.04
1.28
0.68
0.21
-0.20
-0.65
-1.22
-1.91
-2.68
-3.45
-4.12
-4.59
-4.76
-4.57
-4.02
-3.18
-2.12
-0.91
0.38
1.71
2.99
4.10
4.92
5.31
5.23
4.68
3.78
2.67
1.54
0.54
-0.21
-0.72
-1.02
-1.21
-1.39
-1.61
-1.92
-2.32
-2.81
-3.41
-4.10
-4.80
-5.39
-5.74
-5.77
-5.50
-4.97
-4.25
-3.37
-2.29
-1.01
0.45
1.93
3.23
4.13
4.52
4.43
4.02
3.48
2.93
2.42
1.88
1.21
0.37
-0.59
-1.51
-2.21
-2.57
-2.63
-2.51
-2.41
-2.49
-2.80
-3.29
-3.86
-4.36
-4.64
-4.55
-4.01
-2.99
-1.57
0.07
1.71
3.13
4.19
4.85
5.15
5.19
5.04
4.77
4.40
3.92
3.33
2.65
1.93
1.21
0.58
0.08
-0.27
-0.51
-0.67
-0.80
-0.98
-1.30
-1.87
-2.77
-3.95
-5.27
-6.43
-7.12
-7.10
-6.31
-4.85
-3.01
-1.09
0.63
1.98
2.87
3.32
3.37
3.11
2.67
2.16
1.72
1.43
1.31
1.32
1.32
1.17
0.77
0.14
-0.60
-1.30
-1.81
-2.11
-2.31
-2.57
-3.05
-3.77
-4.61
-5.34
-5.66
-5.36
-4.36
-2.78
-0.87
1.07
2.75
4.00
4.77
5.14
5.17
4.94
4.50
3.88
3.16
2.40
1.72
1.17
0.74
0.39
0.07
-0.28
-0.67
-1.12
-1.61
-2.13
-2.68
-3.22
-3.73
-4.20
-4.60
-4.84
-4.81
-4.34
-3.34
-1.85
-0.05
1.76
3.30
4.40
5.00
5.17
5.02
4.62
4.04
3.34
2.57
1.81
1.13
0.53
0.02
-0.40
-0.72
-0.93
-1.03
-1.04
-1.03
-1.04
-1.12
-1.31
-1.61
-1.96
-2.28
-2.44
-2.31
-1.81
-0.99
0.06
1.16
2.19
3.06
3.73
4.18
4.37
4.27
3.89
3.26
2.48
1.62
0.77
0.00
-0.60
-0.98
-1.12
-1.09
-1.06
-1.24
-1.81
-2.77
-3.96
-5.07
-5.79
-5.90
-5.36
-4.29
-2.89
-1.38
0.10
1.46
2.63
3.57
4.23
4.58
4.65
4.53
4.34
4.17
4.02
3.80
3.39
2.71
1.83
0.91
0.17
-0.24
-0.32
-0.22
-0.14
-0.25
-0.65
-1.34
-2.20
-3.14
-4.01
-4.69
-5.07
-5.05
-4.60
-3.76
-2.64
-1.41
-0.22
0.80
1.57
2.04
2.26
2.29
2.24
2.19
2.20
2.25
2.28
2.20
1.96
1.53
0.92
0.21
-0.53
-1.21
-1.75
-2.11
-2.30
-2.36
-2.40
-2.52
-2.78
-3.09
-3.25
-3.03
-2.25
-0.89
0.83
2.61
4.14
5.23
5.86
6.13
6.14
5.93
5.50
4.85
4.04
3.19
2.41
1.73
1.10
0.45
-0.27
-1.01
-1.68
-2.16
-2.43
-2.57
-2.72
-3.03
-3.54
-4.18
-4.75
-5.03
-4.82
-4.04
-2.74
-1.10
0.68
2.39
3.89
5.09
5.90
6.27
6.17
5.60
4.67
3.55
2.44
1.50
0.78
0.24
-0.21
-0.63
-1.08
-1.52
-1.92
-2.21
-2.38
-2.44
-2.47
-2.56
-2.81
-3.21
-3.65
-3.91
-3.74
-3.03
-1.85
-0.38
1.11
2.44
3.54
4.39
5.00
5.27
5.13
4.56
3.66
2.66
1.80
1.20
0.84
0.59
0.29
-0.10
-0.54
-0.90
-1.10
-1.15
-1.16
-1.27
-1.57
-2.07
-2.61
-3.02
-3.09
-2.72
-1.95
-0.91
0.17
1.11
1.83
2.36
2.81
3.26
3.74
4.18
4.44
4.37
3.90
3.07
2.03
1.00
0.17
-0.36
-0.60
-0.66
-0.67
-0.73
-0.90
-1.20
-1.67
-2.35
-3.22
-4.20
-5.07
-5.57
-5.52
-4.86
-3.74
-2.39
-1.03
0.17
1.19
2.04
2.74
3.23
3.46
3.37
2.98
2.35
1.60
0.81
0.04
-0.68
-1.34
-1.90
-2.30
-2.50
-2.55
-2.54
-2.58
-2.79
-3.18
-3.73
-4.33
-4.86
-5.21
-5.26
-4.92
-4.13
-2.90
-1.33
0.39
2.05
3.43
4.41
4.97
5.11
4.95
4.57
4.08
3.55
3.05
2.55
2.04
1.49
0.91
0.33
-0.17
-0.58
-0.90
-1.19
-1.56
-2.06
-2.71
-3.43
-4.09
-4.55
-4.66
-4.33
-3.54
-2.38
-0.97
0.52
1.91
3.08
3.91
4.37
4.46
4.25
3.88
3.44
3.03
2.65
2.25
1.81
1.31
0.79
0.30
-0.18
-0.65
-1.12
-1.59
-1.97
-2.21
-2.33
-2.44
-2.68
-3.12
-3.73
-4.29
-4.56
-4.34
-3.56
-2.32
-0.81
0.75
2.19
3.37
4.19
4.60
4.63
4.35
3.89
3.40
2.98
2.66
2.36
2.01
1.51
0.86
0.09
-0.72
-1.48
-2.13
-2.66
-3.10
-3.48
-3.82
-4.13
-4.36
-4.45
-4.34
-3.96
-3.32
-2.43
-1.34
-0.11
1.22
2.54
3.74
4.67
5.21
5.28
4.94
4.31
3.56
2.82
2.17
1.58
1.00
0.40
-0.21
-0.74
-1.15
-1.42
-1.56
-1.69
-1.91
-2.31
-2.90
-3.63
-4.36
-4.91
-5.10
-4.80
-3.98
-2.73
-1.24
0.30
1.69
2.86
3.77
4.46
4.94
5.17
5.11
4.74
4.09
3.29
2.46
1.75
1.21
0.84
0.55
0.27
-0.05
-0.42
-0.83
-1.23
-1.63
-2.05
-2.53
-3.13
-3.85
-4.63
-5.35
-5.83
-5.87
-5.31
-4.09
-2.33
-0.30
1.67
3.27
4.32
4.81
4.85
4.62
4.27
3.89
3.52
3.15
2.76
2.37
1.98
1.57
1.13
0.62
0.02
-0.64
-1.27
-1.78
-2.07
-2.15
-2.12
-2.19
-2.53
-3.21
-4.12
-4.98
-5.50
-5.47
-4.81
-3.63
-2.10
-0.44
1.19
2.66
3.86
4.70
5.15
5.21
4.95
4.50
4.00
3.55
3.19
2.90
2.62
2.26
1.77
1.16
0.47
-0.20
-0.78
-1.26
-1.69
-2.13
-2.64
-3.22
-3.81
-4.35
-4.75
-4.98
-4.99
-4.73
-4.16
-3.24
-2.03
-0.62
0.83
2.19
3.34
4.22
4.77
4.93
4.70
4.14
3.37
2.57
1.87
1.36
1.02
0.80
0.65
0.54
0.46
0.37
0.22
-0.08
-0.57
-1.21
-1.92
-2.56
-3.06
-3.39
-3.53
-3.45
-3.11
-2.43
-1.43
-0.15
1.21
2.50
3.57
4.41
5.06
5.57
5.92
6.03
5.77
5.08
4.02
2.78
1.59
0.65
0.04
-0.31
-0.52
-0.73
-1.02
-1.37
-1.75
-2.14
-2.55
-3.03
-3.57
-4.14
-4.64
-4.99
-5.11
-4.98
-4.60
-3.95
-3.02
-1.84
-0.45
1.03
2.43
3.58
4.32
4.58
4.37
3.78
2.95
2.06
1.26
0.64
0.22
-0.04
-0.24
-0.46
-0.77
-1.16
-1.58
-1.96
-2.27
-2.54
-2.85
-3.30
-3.94
-4.72
-5.49
-5.98
-5.98
-5.35
-4.13
-2.50
-0.68
1.10
2.66
3.90
4.76
5.17
5.15
4.73
4.04
3.25
2.50
1.87
1.36
0.92
0.47
-0.02
-0.56
-1.15
-1.75
-2.33
-2.85
-3.26
-3.53
-3.73
-3.95
-4.27
-4.71
-5.14
-5.37
-5.20
-4.50
-3.30
-1.75
-0.03
1.69
3.28
4.63
5.63
6.17
6.23
5.86
5.27
4.65
4.16
3.79
3.42
2.91
2.15
1.20
0.20
-0.68
-1.33
-1.76
-2.06
-2.37
-2.78
-3.35
-4.06
-4.86
-5.64
-6.26
-6.54
-6.31
-5.49
-4.11
-2.39
-0.61
0.93
2.03
2.66
2.91
2.92
2.82
2.71
2.62
2.56
2.51
2.42
2.25
1.92
1.37
0.60
-0.32
-1.30
-2.23
-3.05
-3.77
-4.47
-5.24
-6.15
-7.16
-8.16
-8.96
-9.35
-9.25
-8.67
-7.76
-6.72
-5.71
-4.82
-4.07
-3.49
-3.09
-2.92
-3.02
-3.32
-3.64
-3.75
-3.43
-2.61
-1.34
0.21
1.87
3.53
5.17
6.83
8.54
10.25
11.82
13.08
13.88
14.13
13.89
13.29
12.50
11.71
11.04
10.54
10.19
9.94
9.69
9.41
9.09
8.75
8.38
7.92
7.32
6.51
5.53
4.53
3.74
3.34
3.42
3.96
4.79
5.75
6.68
7.54
8.28
8.91
9.41
9.80
10.14
10.54
11.05
11.68
12.33
12.86
13.18
13.25
13.15
12.99
12.84
12.69
12.44
11.96
11.13
9.93
8.40
6.68
4.90
3.18
1.56
-0.01
-1.59
-3.19
-4.72
-6.03
-6.98
-7.45
-7.51
-7.32
-7.10
-7.05
-7.25
-7.65
-8.15
-8.66
-9.14
-9.66
-10.26
-10.97
-11.68
-12.24
-12.51
-12.42
-12.04
-11.53
-11.08
-10.81
-10.76
-10.92
-11.28
-11.78
-12.35
-12.83
-13.02
-12.76
-11.97
-10.79
-9.50
-8.42
-7.78
-7.69
-8.05
-8.72
-9.52
-10.33
-11.01
-11.45
-11.48
-11.00
-9.96
-8.48
-6.79
-5.13
-3.71
-2.55
-1.53
-0.47
0.74
2.05
3.30
4.31
4.95
5.24
5.28
5.15
4.79
4.05
2.76
0.83
-1.62
-4.39
-7.25
-10.12
-13.05
-16.13
-19.31
-22.36
-24.88
-26.50
-27.02
-26.55
-25.37
-23.83
-22.16
-20.44
-18.66
-16.76
-14.78
-12.75
-10.70
-8.57
-6.26
-3.62
-0.63
2.67
6.16
9.74
13.30
16.74
19.94
22.69
24.77
26.01
26.36
25.82
24.47
22.29
19.27
15.48
11.21
6.94
3.33
0.89
-0.17
-0.07
0.66
1.40
1.64
1.16
-0.05
-1.81
-3.91
-6.10
-8.10
-9.60
-10.29
-9.92
-8.44
-6.03
-3.07
-0.05
2.65
4.84
6.60
8.18
9.80
11.61
13.52
15.40
17.12
18.75
20.52
22.72
25.51
28.81
32.24
35.20
37.04
37.20
35.38
31.61
26.32
20.25
14.30
9.24
5.55
3.24
1.96
1.17
0.36
-0.77
-2.24
-3.96
-5.76
-7.53
-9.21
-10.72
-11.96
-12.76
-12.96
-12.56
-11.73
-10.86
-10.45
-10.97
-12.68
-15.54
-19.22
-23.16
-26.79
-29.65
-31.54
-32.51
-32.74
-32.45
-31.78
-30.71
-29.16
-27.03
-24.34
-21.25
-18.06
-15.07
-12.56
-10.66
-9.41
-8.77
-8.63
-8.87
-9.29
-9.67
-9.77
-9.45
-8.73
-7.84
-7.12
-6.87
-7.13
-7.66
-7.92
-7.37
-5.65
-2.81
0.77
4.51
7.90
10.63
12.65
14.08
15.13
15.94
16.62
17.20
17.66
17.93
17.87
17.35
16.32
14.89
13.32
11.94
11.03
10.72
10.95
11.58
12.47
13.51
14.65
15.77
16.72
17.29
17.37
16.99
16.40
15.95
15.94
16.51
17.56
18.81
19.95
20.77
21.28
21.66
22.16
22.98
24.12
25.36
26.39
27.01
27.21
27.19
27.25
27.56
28.03
28.35
28.15
27.24
25.66
23.63
21.41
19.03
16.29
12.78
8.12
2.15
-4.89
-12.42
-19.67
-25.87
-30.57
-33.72
-35.62
-36.76
-37.54
-38.17
-38.64
-38.85
-38.73
-38.27
-37.53
-36.48
-35.00
-32.94
-30.23
-27.01
-23.61
-20.39
-17.60
-15.30
-13.35
-11.58
-9.87
-8.23
-6.75
-5.52
-4.60
-3.94
-3.45
-3.01
-2.52
-1.89
-1.15
-0.33
0.42
0.97
1.24
1.21
0.97
0.71
0.61
0.79
1.28
2.00
2.78
3.47
3.92
4.07
3.89
3.44
2.77
1.97
1.13
0.33
-0.34
-0.87
-1.33
-1.83
-2.45
-3.13
-3.70
-3.95
-3.70
-2.96
-1.82
-0.51
0.80
1.98
2.99
3.83
4.52
5.16
5.88
6.81
8.08
9.73
11.69
13.81
15.92
17.86
19.50
20.79
21.69
22.26
22.57
22.72
22.75
22.64
22.33
21.76
20.94
19.99
19.04
18.25
17.67
17.27
16.92
16.43
15.58
14.14
11.99
9.10
5.60
1.79
-1.95
-5.21
-7.64
-9.06
-9.50
-9.19
-8.46
-7.62
-6.85
-6.18
-5.48
-4.66
-3.71
-2.73
-1.93
-1.45
-1.26
-1.22
-1.06
-0.65
0.01
0.76
1.31
1.42
0.90
-0.33
-2.27
-4.81
-7.74
-10.80
-13.66
-16.07
-17.92
-19.28
-20.37
-21.49
-22.82
-24.44
-26.25
-28.10
-29.85
-31.45
-32.96
-34.44
-35.92
-37.33
-38.55
-39.48
-40.04
-40.18
-39.84
-38.86
-37.00
-34.13
-30.26
-25.64
-20.72
-15.95
-11.63
-7.84
-4.38
-0.96
2.73
6.85
11.41
16.24
21.11
25.81
30.20
34.27
38.06
41.53
44.51
46.74
47.99
48.12
47.20
45.42
42.97
39.99
36.55
32.76
28.79
24.88
21.29
18.13
15.40
12.95
10.65
8.49
6.59
5.16
4.32
4.07
4.23
4.50
4.61
4.38
3.80
2.97
2.02
1.04
0.05
-0.96
-2.00
-3.00
-3.87
-4.53
-4.97
-5.25
-5.53
-5.99
-6.72
-7.70
-8.81
-9.81
-10.53
-10.88
-10.94
-10.89
-10.92
-11.11
-11.41
-11.69
-11.78
-11.64
-11.32
-10.89
-10.37
-9.71
-8.83
-7.70
-6.47
-5.33
-4.51
-4.09
-4.02
-4.12
-4.25
-4.30
-4.28
-4.23
-4.20
-4.21
-4.29
-4.42
-4.61
-4.85
-5.09
-5.30
-5.48
-5.69
-6.00
-6.46
-7.02
-7.52
-7.77
-7.64
-7.10
-6.21
-5.07
-3.75
-2.29
-0.68
1.09
3.01
5.10
7.38
9.87
12.52
15.11
17.27
18.58
18.67
17.42
14.98
11.75
8.23
4.91
2.10
-0.04
-1.56
-2.60
-3.36
-4.03
-4.77
-5.64
-6.65
-7.71
-8.67
-9.36
-9.65
-9.49
-8.92
-8.05
-6.95
-5.71
-4.37
-3.04
-1.88
-1.06
-0.74
-0.97
-1.63
-2.48
-3.25
-3.70
-3.76
-3.48
-2.99
-2.45
-1.96
-1.55
-1.22
-0.97
-0.80
-0.74
-0.80
-0.94
-1.03
-0.89
-0.36
0.65
2.08
3.80
5.58
7.20
8.47
9.27
9.57
9.38
8.76
7.80
6.56
5.11
3.58
2.10
0.84
-0.13
-0.83
-1.38
-1.96
-2.70
-3.58
-4.50
-5.30
-5.89
-6.29
-6.64
-7.12
-7.82
-8.69
-9.50
-9.93
-9.70
-8.64
-6.81
-4.43
-1.85
0.61
2.73
4.43
5.74
6.71
7.40
7.82
7.94
7.70
7.08
6.05
4.70
3.17
1.68
0.46
-0.33
-0.70
-0.78
-0.77
-0.87
-1.17
-1.65
-2.25
-2.92
-3.62
-4.28
-4.77
-4.92
-4.56
-3.58
-2.06
-0.20
1.74
3.52
4.98
6.08
6.85
7.39
7.78
8.10
8.37
8.54
8.54
8.31
7.84
7.19
6.38
5.47
4.45
3.34
2.23
1.26
0.55
0.11
-0.23
-0.73
-1.56
-2.67
-3.77
-4.44
-4.40
-3.63
-2.36
-0.98
0.22
1.11
1.71
2.11
2.34
2.39
2.20
1.78
1.20
0.57
0.03
-0.40
-0.69
-0.89
-1.04
-1.17
-1.31
-1.49
-1.77
-2.18
-2.75
-3.49
-4.39
-5.41
-6.43
-7.31
-7.85
-7.88
-7.36
-6.35
-5.05
-3.75
-2.70
-2.05
-1.84
-1.99
-2.37
-2.90
-3.52
-4.21
-4.91
-5.57
-6.10
-6.42
-6.54
-6.54
-6.55
-6.67
-6.99
-7.45
-7.97
-8.42
-8.69
-8.75
-8.56
-8.04
-7.06
-5.46
-3.10
0.01
3.66
7.46
10.93
13.68
15.48
16.32
16.36
15.87
15.11
14.32
13.65
13.17
12.88
12.73
12.65
12.54
12.33
11.94
11.33
10.50
9.45
8.21
6.81
5.20
3.37
1.30
-0.92
-3.06
-4.80
-5.84
-5.99
-5.24
-3.79
-1.92
0.07
1.96
3.62
5.00
6.07
6.81
7.20
7.26
7.03
6.58
5.95
5.22
4.44
3.71
3.16
2.90
2.98
3.30
3.67
3.83
3.57
2.79
1.56
0.05
-1.52
-2.93
-4.03
-4.74
-5.04
-4.93
-4.47
-3.71
-2.78
-1.81
-0.97
-0.39
-0.17
-0.29
-0.70
-1.25
-1.80
-2.23
-2.48
-2.59
-2.61
-2.66
-2.80
-3.08
-3.44
-3.83
-4.16
-4.39
-4.57
-4.75
-5.01
-5.38
-5.83
-6.25
-6.52
-6.46
-5.96
-4.98
-3.55
-1.83
-0.03
1.60
2.88
3.70
4.05
3.96
3.55
2.95
2.30
1.74
1.35
1.14
1.02
0.88
0.62
0.22
-0.29
-0.85
-1.44
-2.07
-2.79
-3.62
-4.51
-5.32
-5.90
-6.10
-5.79
-4.95
-3.64
-2.01
-0.32
1.20
2.37
3.13
3.58
3.81
3.88
3.76
3.39
2.75
1.95
1.18
0.66
0.45
0.47
0.51
0.40
0.04
-0.52
-1.16
-1.81
-2.46
-3.14
-3.90
-4.67
-5.33
-5.66
-5.49
-4.74
-3.50
-1.92
-0.25
1.30
2.62
3.64
4.36
4.76
4.85
4.66
4.30
3.90
3.59
3.38
3.17
2.80
2.13
1.16
0.02
-1.03
-1.79
-2.21
-2.40
-2.59
-2.97
-3.61
-4.40
-5.13
-5.57
-5.60
-5.22
-4.53
-3.66
-2.68
-1.61
-0.46
0.72
1.79
2.59
3.00
3.00
2.68
2.22
1.75
1.36
1.05
0.77
0.48
0.18
-0.10
-0.36
-0.58
-0.79
-1.06
-1.45
-1.99
-2.69
-3.49
-4.26
-4.80
-4.94
-4.57
-3.70
-2.50
-1.20
-0.02
0.93
1.68
2.31
2.92
3.53
4.03
4.31
4.30
3.99
3.42
2.67
1.82
0.90
-0.02
-0.87
-1.56
-2.03
-2.30
-2.46
-2.63
-2.90
-3.32
-3.88
-4.49
-5.03
-5.37
-5.37
-4.92
-3.99
-2.66
-1.10
0.47
1.84
2.91
3.68
4.18
4.45
4.53
4.41
4.13
3.74
3.33
2.94
2.59
2.22
1.78
1.27
0.72
0.23
-0.14
-0.40
-0.62
-0.93
-1.42
-2.10
-2.92
-3.73
-4.36
-4.61
-4.35
-3.54
-2.24
-0.64
1.06
2.60
3.83
4.70
5.24
5.51
5.59
5.53
5.33
4.97
4.42
3.68
2.80
1.89
1.10
0.50
0.12
-0.13
-0.40
-0.78
-1.35
-2.06
-2.84
-3.61
-4.30
-4.84
-5.13
-5.09
-4.65
-3.76
-2.48
-0.95
0.70
2.26
3.55
4.43
4.83
4.78
4.44
3.99
3.59
3.31
3.11
2.93
2.71
2.46
2.19
1.89
1.51
1.01
0.39
-0.31
-1.03
-1.70
-2.35
-3.02
-3.76
-4.51
-5.15
-5.48
-5.30
-4.55
-3.26
-1.63
0.10
1.65
2.88
3.71
4.17
4.35
4.30
4.04
3.62
3.08
2.53
2.07
1.75
1.54
1.34
1.05
0.63
0.12
-0.37
-0.79
-1.14
-1.53
-2.08
-2.84
-3.75
-4.60
-5.14
-5.14
-4.52
-3.34
-1.79
-0.12
1.47
2.88
4.05
4.97
5.64
5.99
5.98
5.62
5.00
4.28
3.65
3.20
2.92
2.73
2.49
2.17
1.76
1.34
1.01
0.76
0.55
0.23
-0.30
-1.09
-2.12
-3.25
-4.31
-5.07
-5.36
-5.05
-4.18
-2.85
-1.26
0.35
1.82
3.02
3.91
4.49
4.75
4.73
4.47
4.03
3.53
3.05
2.63
2.24
1.83
1.36
0.82
0.29
-0.18
-0.58
-0.94
-1.36
-1.94
-2.73
-3.72
-4.82
-5.87
-6.70
-7.12
-6.99
-6.29
-5.10
-3.62
-2.07
-0.64
0.57
1.56
2.35
2.91
3.21
3.21
2.93
2.48
1.99
1.54
1.13
0.70
0.24
-0.23
-0.62
-0.89
-1.04
-1.19
-1.48
-1.97
-2.63
-3.35
-4.01
-4.57
-5.03
-5.35
-5.46
-5.24
-4.57
-3.45
-1.97
-0.31
1.30
2.70
3.74
4.36
4.58
4.44
4.05
3.51
2.90
2.29
1.74
1.27
0.91
0.69
0.56
0.42
0.13
-0.43
-1.33
-2.48
-3.66
-4.62
-5.15
-5.19
-4.84
-4.31
-3.78
-3.32
-2.83
-2.14
-1.12
0.19
1.59
2.84
3.76
4.31
4.59
4.69
4.67
4.48
4.03
3.32
2.42
1.52
0.80
0.34
0.12
0.02
-0.13
-0.40
-0.85
-1.46
-2.22
-3.14
-4.14
-5.12
-5.86
-6.15
-5.84
-4.96
-3.66
-2.16
-0.64
0.78
2.06
3.20
4.11
4.72
4.93
4.74
4.28
3.72
3.22
2.86
2.58
2.26
1.83
1.27
0.63
0.00
-0.55
-1.03
-1.51
-2.06
-2.72
-3.49
-4.23
-4.80
-5.01
-4.79
-4.16
-3.24
-2.19
-1.12
-0.07
1.00
2.10
3.19
4.13
4.77
5.04
4.96
4.67
4.27
3.79
3.19
2.43
1.52
0.62
-0.09
-0.49
-0.61
-0.62
-0.71
-1.05
-1.64
-2.41
-3.25
-4.08
-4.85
-5.47
-5.78
-5.63
-4.92
-3.69
-2.14
-0.51
0.97
2.16
3.04
3.62
3.90
3.87
3.53
2.94
2.25
1.65
1.28
1.19
1.26
1.31
1.16
0.72
0.00
-0.85
-1.70
-2.45
-3.06
-3.57
-4.03
-4.43
-4.72
-4.79
-4.56
-4.00
-3.14
-2.07
-0.89
0.31
1.41
2.33
3.00
3.41
3.56
3.50
3.27
2.89
2.41
1.88
1.37
0.97
0.70
0.52
0.37
0.13
-0.25
-0.76
-1.36
-2.00
-2.63
-3.26
-3.87
-4.41
-4.79
-4.88
-4.55
-3.77
-2.59
-1.17
0.29
1.60
2.66
3.44
3.99
4.30
4.35
4.10
3.56
2.85
2.15
1.62
1.33
1.18
1.02
0.70
0.17
-0.52
-1.29
-2.08
-2.88
-3.69
-4.49
-5.19
-5.68
-5.85
-5.63
-5.01
-4.04
-2.81
-1.44
-0.04
1.29
2.45
3.42
4.15
4.64
4.85
4.78
4.43
3.89
3.26
2.67
2.17
1.77
1.42
1.04
0.58
-0.00
-0.66
-1.33
-1.96
-2.52
-3.04
-3.60
-4.23
-4.84
-5.25
-5.21
-4.55
-3.28
-1.62
0.06
1.45
2.42
3.03
3.44
3.76
4.00
4.05
3.83
3.34
2.73
2.17
1.79
1.55
1.33
0.96
0.37
-0.40
-1.23
-2.02
-2.73
-3.44
-4.21
-5.04
-5.85
-6.47
-6.71
-6.47
-5.74
-4.57
-3.11
-1.49
0.13
1.65
2.95
3.97
4.71
5.22
5.57
5.84
6.05
6.18
6.21
6.09
5.82
5.42
4.91
4.29
3.58
2.81
2.02
1.24
0.48
-0.30
-1.14
-2.07
-3.02
-3.87
-4.48
-4.74
-4.58
-4.02
-3.10
-1.92
-0.64
0.58
1.54
2.13
2.33
2.22
1.93
1.58
1.23
0.88
0.54
0.18
-0.15
-0.43
-0.65
-0.81
-0.97
-1.16
-1.43
-1.82
-2.31
-2.91
-3.59
-4.30
-5.02
-5.63
-6.03
-6.04
-5.52
-4.42
-2.84
-1.00
0.81
2.33
3.42
4.08
4.39
4.48
4.45
4.35
4.19
3.98
3.70
3.35
2.96
2.55
2.16
1.80
1.42
1.01
0.50
-0.10
-0.77
-1.50
-2.27
-3.06
-3.87
-4.60
-5.13
-5.29
-4.95
-4.08
-2.75
-1.15
0.52
2.09
3.45
4.56
5.41
5.98
6.24
6.19
5.84
5.27
4.60
3.93
3.35
2.87
2.46
2.08
1.72
1.40
1.10
0.76
0.26
-0.53
-1.63
-2.97
-4.31
-5.42
-6.06
-6.11
-5.54
-4.42
-2.87
-1.07
0.77
2.43
3.70
4.50
4.83
4.84
4.69
4.57
4.55
4.60
4.60
4.41
3.91
3.11
2.11
1.08
0.16
-0.55
-1.06
-1.49
-1.94
-2.50
-3.18
-3.93
-4.69
-5.32
-5.72
-5.74
-5.30
-4.40
-3.10
-1.57
-0.02
1.35
2.40
3.08
3.44
3.58
3.60
3.58
3.53
3.45
3.28
3.01
2.64
2.16
1.63
1.06
0.45
-0.20
-0.90
-1.65
-2.44
-3.22
-3.97
-4.62
-5.12
-5.36
-5.27
-4.78
-3.96
-2.90
-1.73
-0.56
0.56
1.64
2.65
3.52
4.13
4.34
4.11
3.51
2.72
1.95
1.35
0.90
0.51
0.04
-0.55
-1.23
-1.88
-2.40
-2.76
-3.04
-3.37
-3.84
-4.45
-5.10
-5.63
-5.86
-5.69
-5.06
-3.96
-2.46
-0.66
1.22
2.96
4.33
5.21
5.60
5.59
5.31
4.85
4.27
3.58
2.85
2.20
1.70
1.39
1.17
0.89
0.41
-0.30
-1.20
-2.13
-2.95
-3.57
-3.98
-4.20
-4.23
-4.07
-3.66
-2.96
-1.99
-0.81
0.47
1.72
2.82
3.71
4.38
4.85
5.14
5.22
5.05
4.60
3.90
3.04
2.16
1.42
0.87
0.50
0.22
-0.10
-0.54
-1.10
-1.73
-2.36
-2.95
-3.50
-4.00
-4.42
-4.66
-4.57
-4.07
-3.13
-1.84
-0.35
1.17
2.58
3.80
4.77
5.42
5.72
5.63
5.19
4.48
3.63
2.77
1.99
1.29
0.65
0.01
-0.61
-1.18
-1.65
-1.99
-2.26
-2.53
-2.90
-3.41
-4.01
-4.60
-5.03
-5.15
-4.85
-4.06
-2.80
-1.19
0.55
2.19
3.52
4.43
4.91
5.02
4.84
4.46
3.96
3.41
2.88
2.40
1.95
1.51
1.07
0.61
0.16
-0.30
-0.80
-1.44
-2.27
-3.27
-4.31
-5.21
-5.79
-5.92
-5.57
-4.78
-3.62
-2.20
-0.64
0.90
2.26
3.30
3.97
4.29
4.33
4.20
3.98
3.70
3.40
3.05
2.66
2.24
1.81
1.39
0.97
0.56
0.13
-0.31
-0.75
-1.19
-1.65
-2.16
-2.79
-3.52
-4.29
-4.92
-5.19
-4.94
-4.11
-2.80
-1.25
0.31
1.67
2.72
3.44
3.86
4.02
3.96
3.77
3.52
3.29
3.11
2.91
2.59
2.09
1.43
0.71
0.12
-0.22
-0.33
-0.36
-0.56
-1.09
-1.98
-3.10
-4.16
-4.85
-4.97
-4.50
-3.54
-2.31
-1.04
0.15
1.23
2.21
3.08
3.80
4.26
4.37
4.14
3.68
3.14
2.65
2.24
1.87
1.45
0.96
0.44
-0.03
-0.39
-0.65
-0.91
-1.28
-1.83
-2.55
-3.33
-4.06
-4.63
-5.01
-5.19
-5.12
-4.73
-3.92
-2.69
-1.13
0.53
2.04
3.18
3.89
4.24
4.37
4.44
4.48
4.43
4.21
3.75
3.09
2.35
1.63
1.00
0.43
-0.12
-0.72
-1.33
-1.89
-2.32
-2.60
-2.79
-3.02
-3.35
-3.72
-3.95
-3.84
-3.26
-2.28
-1.09
0.04
0.94
1.54
1.92
2.18
2.39
2.55
2.62
2.57
2.41
2.17
1.89
1.58
1.23
0.82
0.37
-0.09
-0.53
-0.94
-1.34
-1.76
-2.21
-2.69
-3.14
-3.54
-3.86
-4.06
-4.10
-3.90
-3.45
-2.73
-1.83
-0.87
0.03
0.81
1.44
1.96
2.41
2.76
3.00
3.06
2.93
2.60
2.13
1.58
1.01
0.45
-0.13
-0.73
-1.36
-1.97
-2.48
-2.80
-2.95
-2.99
-3.04
-3.18
-3.40
-3.58
-3.54
-3.20
-2.55
-1.69
-0.74
0.20
1.11
1.98
2.74
3.27
3.45
3.21
2.65
1.93
1.28
0.83
0.62
0.61
0.64
0.60
0.38
-0.05
-0.62
-1.22
-1.73
-2.11
-2.39
-2.67
-3.06
-3.58
-4.11
-4.49
-4.60
-4.39
-3.96
-3.43
-2.91
-2.43
-1.96
-1.48
-1.04
-0.68
-0.48
-0.49
-0.65
-0.93
-1.28
-1.71
-2.23
-2.84
-3.47
-4.03
-4.36
-4.41
-4.20
-3.83
-3.43
-3.07
-2.76
-2.45
-2.05
-1.57
-1.04
-0.57
-0.22
-0.00
0.14
0.31
0.57
0.93
1.33
1.63
1.74
1.62
1.35
1.09
0.98
1.11
1.50
2.10
2.86
3.75
4.73
5.71
6.55
7.12
7.33
7.18
6.74
6.11
5.36
4.56
3.75
2.96
2.24
1.61
1.05
0.57
0.21
0.09
0.30
0.82
1.53
2.12
2.30
1.87
0.79
-0.78
-2.63
-4.51
-6.23
-7.70
-8.92
-9.91
-10.74
-11.42
-11.95
-12.31
-12.55
-12.76
-13.00
-13.24
-13.28
-12.82
-11.55
-9.37
-6.46
-3.19
0.01
2.84
5.19
7.08
8.50
9.34
9.40
8.52
6.71
4.21
1.35
-1.45
-3.90
-5.83
-7.18
-8.03
-8.48
-8.62
-8.45
-7.77
-6.22
-3.33
1.26
7.55
15.09
23.07
30.51
36.57
40.74
42.86
42.99
41.33
38.11
33.61
28.23
22.43
16.71
11.43
6.80
2.83
-0.57
-3.51
-6.07
-8.25
-10.01
-11.29
-12.05
-12.35
-12.33
-12.18
-12.11
-12.24
-12.56
-12.94
-13.20
-13.16
-12.78
-12.12
-11.35
-10.67
-10.26
-10.17
-10.24
-10.08
-9.22
-7.27
-4.15
-0.13
4.16
7.99
10.74
12.09
12.03
10.77
8.61
5.87
2.82
-0.25
-3.02
-5.20
-6.58
-7.17
-7.14
-6.78
-6.40
-6.16
-6.09
-6.10
-6.11
-6.13
-6.25
-6.59
-7.15
-7.83
-8.41
-8.71
-8.65
-8.31
-7.86
-7.49
-7.33
-7.42
-7.72
-8.12
-8.46
-8.53
-8.15
-7.19
-5.69
-3.83
-1.90
-0.17
1.17
2.08
2.68
3.09
3.45
3.84
4.25
4.65
5.00
5.25
5.37
5.33
5.18
5.03
5.02
5.30
5.93
6.85
7.89
8.86
9.61
10.10
10.37
10.46
10.43
10.24
9.86
9.26
8.46
7.57
6.66
5.80
4.95
4.04
3.00
1.79
0.48
-0.82
-2.00
-3.00
-3.82
-4.53
-5.18
-5.80
-6.35
-6.76
-6.96
-6.92
-6.67
-6.28
-5.82
-5.33
-4.81
-4.29
-3.78
-3.35
-3.06
-2.93
-2.99
-3.21
-3.56
-4.05
-4.69
-5.51
-6.49
-7.56
-8.66
-9.70
-10.66
-11.55
-12.40
-13.24
-14.05
-14.77
-15.33
-15.66
-15.78
-15.74
-15.61
-15.42
-15.13
-14.68
-14.05
-13.30
-12.56
-12.02
-11.76
-11.75
-11.82
-11.71
-11.14
-9.93
-8.00
-5.39
-2.25
1.20
4.71
8.12
11.29
14.19
16.83
19.22
21.35
23.24
24.96
26.63
28.37
30.15
31.83
33.15
33.87
33.87
33.24
32.14
30.76
29.18
27.41
25.42
23.27
21.10
19.10
17.41
16.05
14.90
13.76
12.41
10.76
8.78
6.53
4.07
1.44
-1.31
-4.11
-6.81
-9.21
-11.13
-12.45
-13.23
-13.60
-13.78
-13.93
-14.09
-14.20
-14.13
-13.80
-13.19
-12.38
-11.49
-10.63
-9.85
-9.20
-8.67
-8.24
-7.87
-7.44
-6.86
-6.05
-4.99
-3.76
-2.52
-1.41
-0.56
-0.02
0.27
0.37
0.41
0.47
0.63
0.93
1.40
2.05
2.88
3.87
4.94
6.01
6.98
7.78
8.36
8.66
8.65
8.30
7.64
6.76
5.75
4.73
3.73
2.76
1.81
0.96
0.28
-0.14
-0.34
-0.47
-0.71
-1.22
-1.98
-2.87
-3.69
-4.31
-4.69
-4.88
-4.94
-4.87
-4.62
-4.13
-3.41
-2.52
-1.60
-0.77
-0.11
0.32
0.48
0.36
-0.05
-0.70
-1.45
-2.15
-2.63
-2.84
-2.84
-2.74
-2.72
-2.85
-3.15
-3.58
-4.04
-4.49
-4.88
-5.16
-5.31
-5.28
-5.03
-4.52
-3.71
-2.64
-1.36
-0.05
1.11
1.97
2.46
2.62
2.56
2.35
2.02
1.54
0.93
0.25
-0.35
-0.78
-1.03
-1.19
-1.41
-1.79
-2.29
-2.83
-3.31
-3.71
-4.06
-4.38
-4.62
-4.65
-4.36
-3.68
-2.68
-1.50
-0.30
0.81
1.74
2.45
2.94
3.20
3.27
3.19
2.99
2.70
2.29
1.74
1.05
0.29
-0.46
-1.06
-1.47
-1.70
-1.87
-2.13
-2.60
-3.31
-4.18
-5.03
-5.60
-5.71
-5.26
-4.31
-3.01
-1.59
-0.23
0.97
2.00
2.91
3.72
4.39
4.80
4.82
4.40
3.60
2.66
1.79
1.17
0.80
0.58
0.34
-0.04
-0.56
-1.19
-1.86
-2.53
-3.18
-3.78
-4.23
-4.44
-4.28
-3.73
-2.87
-1.87
-0.86
0.07
0.94
1.83
2.76
3.64
4.33
4.69
4.67
4.36
3.90
3.44
3.03
2.62
2.12
1.47
0.71
-0.01
-0.57
-0.91
-1.11
-1.32
-1.71
-2.36
-3.24
-4.12
-4.75
-4.88
-4.40
-3.34
-1.87
-0.21
1.41
2.82
3.88
4.53
4.78
4.71
4.45
4.13
3.84
3.56
3.24
2.79
2.20
1.52
0.85
0.27
-0.24
-0.75
-1.35
-2.10
-2.96
-3.85
-4.66
-5.31
-5.73
-5.87
-5.65
-5.03
-4.00
-2.63
-1.05
0.52
1.90
2.96
3.67
4.04
4.17
4.11
3.90
3.59
3.16
2.63
2.01
1.33
0.61
-0.08
-0.67
-1.10
-1.35
-1.47
-1.55
-1.73
-2.11
-2.75
-3.56
-4.39
-5.01
-5.21
-4.89
-4.05
-2.84
-1.45
-0.08
1.15
2.24
3.19
4.03
4.69
5.08
5.10
4.76
4.18
3.54
2.97
2.54
2.22
1.91
1.56
1.14
0.72
0.30
-0.12
-0.64
-1.34
-2.26
-3.30
-4.27
-4.93
-5.10
-4.68
-3.74
-2.42
-0.93
0.53
1.84
2.91
3.74
4.37
4.87
5.29
5.64
5.88
5.96
5.78
5.35
4.71
3.96
3.22
2.56
1.99
1.49
1.09
0.76
0.53
0.33
0.03
-0.51
-1.38
-2.53
-3.77
-4.82
-5.42
-5.40
-4.76
-3.64
-2.21
-0.63
0.96
2.49
3.87
5.01
5.81
6.19
6.14
5.74
5.16
4.64
4.32
4.24
4.28
4.27
4.04
3.54
2.83
2.10
1.48
1.04
0.72
0.39
-0.10
-0.83
-1.77
-2.86
-3.99
-5.06
-5.98
-6.66
-6.95
-6.71
-5.84
-4.35
-2.42
-0.31
1.65
3.24
4.35
5.01
5.34
5.45
5.44
5.34
5.18
4.97
4.72
4.44
4.13
3.74
3.25
2.66
1.98
1.33
0.82
0.55
0.51
0.56
0.50
0.10
-0.70
-1.85
-3.16
-4.40
-5.38
-5.99
-6.20
-6.02
-5.48
-4.60
-3.42
-2.01
-0.48
1.03
2.38
3.48
4.28
4.82
5.15
5.30
5.29
5.08
4.64
4.00
3.28
2.64
2.20
2.00
1.92
1.79
1.46
0.91
0.20
-0.51
-1.09
-1.53
-1.92
-2.42
-3.14
-4.10
-5.16
-6.13
-6.84
-7.18
-7.12
-6.68
-5.90
-4.78
-3.36
-1.70
0.07
1.76
3.20
4.27
4.92
5.19
5.15
4.87
4.40
3.80
3.12
2.46
1.92
1.58
1.43
1.40
1.38
1.25
0.97
0.53
-0.03
-0.70
-1.48
-2.35
-3.27
-4.16
-4.92
-5.46
-5.75
-5.76
-5.48
-4.91
-4.04
-2.86
-1.44
0.05
1.43
2.52
3.20
3.47
3.43
3.23
3.01
2.84
2.71
2.54
2.28
1.86
1.32
0.72
0.15
-0.31
-0.63
-0.84
-1.00
-1.15
-1.33
-1.55
-1.83
-2.20
-2.71
-3.36
-4.08
-4.70
-5.01
-4.86
-4.19
-3.16
-1.97
-0.83
0.15
1.01
1.80
2.55
3.16
3.51
3.46
3.03
2.36
1.65
1.07
0.62
0.23
-0.22
-0.73
-1.21
-1.50
-1.48
-1.19
-0.83
-0.68
-0.96
-1.73
-2.85
-4.02
-4.95
-5.43
-5.41
-4.96
-4.19
-3.21
-2.10
-0.94
0.19
1.21
2.04
2.65
3.08
3.36
3.53
3.59
3.50
3.21
2.67
1.93
1.07
0.24
-0.42
-0.80
-0.92
-0.86
-0.80
-0.87
-1.18
-1.75
-2.52
-3.41
-4.33
-5.16
-5.77
-6.02
-5.78
-5.03
-3.85
-2.41
-0.92
0.46
1.65
2.64
3.45
4.09
4.51
4.64
4.46
4.01
3.41
2.81
2.33
1.98
1.70
1.38
0.94
0.38
-0.22
-0.79
-1.28
-1.74
-2.27
-2.95
-3.79
-4.67
-5.39
-5.77
-5.68
-5.16
-4.31
-3.28
-2.16
-0.98
0.27
1.55
2.80
3.85
4.60
4.97
4.97
4.71
4.28
3.77
3.27
2.84
2.50
2.26
2.07
1.85
1.51
0.99
0.32
-0.40
-1.05
-1.57
-1.96
-2.28
-2.67
-3.18
-3.84
-4.55
-5.13
-5.37
-5.13
-4.35
-3.13
-1.68
-0.26
0.95
1.88
2.59
3.18
3.71
4.13
4.32
4.21
3.81
3.29
2.83
2.56
2.49
2.45
2.28
1.87
1.23
0.47
-0.28
-0.96
-1.56
-2.16
-2.80
-3.48
-4.18
-4.81
-5.25
-5.40
-5.14
-4.44
-3.34
-2.01
-0.64
0.62
1.70
2.62
3.39
4.00
4.40
4.48
4.21
3.65
2.95
2.29
1.79
1.47
1.29
1.16
1.02
0.84
0.66
0.51
0.36
0.17
-0.14
-0.68
-1.45
-2.42
-3.44
-4.32
-4.88
-5.05
-4.80
-4.17
-3.25
-2.13
-0.94
0.21
1.21
1.98
2.50
2.81
2.97
3.05
3.05
2.95
2.70
2.27
1.67
0.93
0.15
-0.54
-1.04
-1.29
-1.29
-1.13
-0.97
-1.00
-1.34
-2.05
-3.03
-4.13
-5.10
-5.72
-5.83
-5.37
-4.40
-3.08
-1.63
-0.25
0.93
1.87
2.59
3.11
3.43
3.52
3.37
3.01
2.55
2.11
1.79
1.63
1.57
1.48
1.22
0.73
0.09
-0.56
-1.05
-1.30
-1.38
-1.45
-1.72
-2.25
-2.95
-3.60
-3.99
-3.98
-3.57
-2.83
-1.80
-0.51
0.96
2.51
3.95
5.04
5.65
5.72
5.35
4.69
3.89
3.11
2.44
1.93
1.58
1.32
1.05
0.71
0.26
-0.23
-0.70
-1.12
-1.49
-1.91
-2.41
-3.02
-3.66
-4.27
-4.77
-5.12
-5.27
-5.15
-4.66
-3.73
-2.40
-0.85
0.67
1.87
2.61
2.87
2.78
2.51
2.20
1.92
1.65
1.34
1.00
0.68
0.46
0.36
0.32
0.23
0.01
-0.39
-0.90
-1.46
-1.99
-2.50
-3.04
-3.66
-4.30
-4.81
-4.98
-4.67
-3.83
-2.57
-1.07
0.46
1.86
3.01
3.87
4.39
4.60
4.57
4.38
4.13
3.88
3.62
3.33
2.95
2.45
1.85
1.20
0.57
0.03
-0.35
-0.58
-0.74
-0.95
-1.36
-2.01
-2.81
-3.57
-4.07
-4.15
-3.79
-3.09
-2.18
-1.18
-0.17
0.79
1.66
2.38
2.94
3.32
3.50
3.49
3.23
2.72
2.03
1.31
0.74
0.45
0.43
0.55
0.63
0.52
0.21
-0.26
-0.81
-1.43
-2.16
-3.02
-3.94
-4.77
-5.26
-5.20
-4.53
-3.35
-1.90
-0.47
0.72
1.58
2.17
2.61
3.01
3.38
3.70
3.85
3.75
3.39
2.81
2.09
1.34
0.64
0.03
-0.47
-0.87
-1.23
-1.61
-2.08
-2.70
-3.45
-4.25
-4.97
-5.44
-5.51
-5.11
-4.21
-2.88
-1.28
0.42
1.99
3.27
4.14
4.60
4.71
4.60
4.36
4.01
3.53
2.87
2.05
1.14
0.26
-0.47
-0.97
-1.29
-1.53
-1.83
-2.32
-3.06
-4.02
-5.09
-6.10
-6.88
-7.29
-7.28
-6.87
-6.11
-5.09
-3.86
-2.46
-0.92
0.73
2.42
4.08
5.59
6.82
7.62
7.91
7.69
7.07
6.22
5.35
4.61
4.05
3.63
3.25
2.82
2.31
1.74
1.15
0.56
-0.03
-0.60
-1.06
-1.30
-1.17
-0.58
0.46
1.81
3.27
4.62
5.68
6.37
6.63
6.49
6.01
5.35
4.69
4.18
3.88
3.69
3.39
2.78
1.73
0.34
-1.18
-2.56
-3.63
-4.38
-4.93
-5.46
-6.05
-6.67
-7.16
-7.36
-7.13
-6.45
-5.41
-4.14
-2.77
-1.40
-0.11
1.01
1.85
2.27
2.19
1.62
0.65
-0.50
-1.61
-2.55
-3.24
-3.74
-4.17
-4.63
-5.17
-5.76
-6.34
-6.85
-7.26
-7.60
-7.83
-7.87
-7.57
-6.74
-5.31
-3.33
-1.01
1.35
3.50
5.32
6.80
8.03
9.06
9.92
10.54
10.83
10.75
10.38
9.82
9.21
8.62
8.05
7.42
6.64
5.66
4.44
2.89
0.94
-1.51
-4.46
-7.75
-11.10
-14.12
-16.46
-17.95
-18.56
-18.42
-17.74
-16.75
-15.69
-14.77
-14.02
-13.29
-12.21
-10.32
-7.31
-3.17
1.76
6.97
11.91
16.24
19.79
22.48
24.15
24.58
23.59
21.19
17.72
13.72
9.81
6.42
3.74
1.68
0.04
-1.29
-2.34
-2.97
-3.07
-2.60
-1.68
-0.56
0.43
0.98
0.90
0.10
-1.31
-3.07
-4.83
-6.27
-7.17
-7.45
-7.20
-6.57
-5.71
-4.74
-3.75
-2.80
-1.96
-1.26
-0.66
-0.07
0.63
1.55
2.75
4.21
5.81
7.38
8.72
9.64
10.00
9.72
8.84
7.49
5.86
4.12
2.44
0.91
-0.38
-1.38
-2.03
-2.29
-2.17
-1.76
-1.21
-0.73
-0.49
-0.56
-0.87
-1.20
-1.37
-1.24
-0.82
-0.24
0.36
0.88
1.34
1.79
2.29
2.82
3.27
3.51
3.49
3.21
2.76
2.19
1.56
0.91
0.35
0.13
0.54
1.78
3.84
6.34
8.66
10.15
10.36
9.26
7.18
4.66
2.24
0.28
-1.05
-1.70
-1.62
-0.79
0.76
2.86
5.21
7.47
9.42
10.96
12.19
13.18
13.97
14.41
14.35
13.67
12.43
10.86
9.26
7.94
7.09
6.76
6.84
7.14
7.45
7.58
7.46
7.15
6.83
6.73
7.03
7.81
9.00
10.36
11.61
12.49
12.89
12.84
12.45
11.80
10.89
9.61
7.83
5.51
2.75
-0.24
-3.14
-5.67
-7.61
-8.88
-9.55
-9.80
-9.90
-10.07
-10.48
-11.10
-11.84
-12.49
-12.93
-13.15
-13.23
-13.29
-13.38
-13.43
-13.27
-12.75
-11.84
-10.66
-9.44
-8.43
-7.75
-7.34
-6.95
-6.27
-5.07
-3.31
-1.17
1.07
3.11
4.75
5.93
6.68
6.95
6.69
5.78
4.21
2.12
-0.20
-2.36
-4.05
-5.12
-5.63
-5.82
-5.96
-6.32
-7.08
-8.27
-9.83
-11.54
-13.18
-14.50
-15.37
-15.77
-15.82
-15.71
-15.64
-15.73
-15.98
-16.28
-16.52
-16.61
-16.55
-16.46
-16.42
-16.41
-16.27
-15.74
-14.62
-12.94
-10.89
-8.88
-7.24
-6.16
-5.59
-5.36
-5.31
-5.33
-5.38
-5.44
-5.45
-5.35
-5.10
-4.73
-4.34
-4.04
-3.87
-3.75
-3.52
-3.03
-2.22
-1.23
-0.29
0.31
0.37
-0.13
-1.02
-2.01
-2.80
-3.22
-3.22
-2.90
-2.41
-1.93
-1.57
-1.35
-1.21
-1.05
-0.76
-0.31
0.26
0.84
1.30
1.58
1.66
1.61
1.48
1.33
1.16
0.95
0.72
0.48
0.26
0.05
-0.20
-0.53
-0.94
-1.34
-1.60
-1.58
-1.24
-0.60
0.18
0.98
1.69
2.26
2.78
3.30
3.90
4.54
5.11
5.44
5.40
4.97
4.24
3.40
2.65
2.09
1.70
1.37
0.97
0.40
-0.32
-1.15
-1.98
-2.75
-3.35
-3.70
-3.72
-3.39
-2.79
-2.06
-1.38
-0.87
-0.56
-0.42
-0.36
-0.34
-0.30
-0.22
-0.06
0.19
0.51
0.82
0.98
0.89
0.54
0.04
-0.50
-0.96
-1.30
-1.56
-1.78
-1.95
-2.02
-1.90
-1.54
-0.94
-0.13
0.84
1.90
2.95
3.87
4.53
4.83
4.76
4.36
3.74
2.98
2.10
1.12
0.04
-1.14
-2.38
-3.66
-4.94
-6.15
-7.19
-7.93
-8.25
-8.17
-7.77
-7.18
-6.49
-5.70
-4.74
-3.54
-2.10
-0.50
1.11
2.58
3.83
4.84
5.68
6.45
7.28
8.24
9.39
10.65
11.84
12.75
13.25
13.32
13.17
13.14
13.66
15.10
17.62
21.09
25.05
28.83
31.73
33.26
33.25
31.89
29.55
26.62
23.41
20.08
16.75
13.53
10.59
8.07
6.01
4.36
2.93
1.60
0.28
-1.02
-2.17
-3.05
-3.55
-3.62
-3.33
-2.81
-2.27
-1.91
-1.83
-2.05
-2.48
-2.99
-3.44
-3.77
-3.97
-4.08
-4.10
-4.02
-3.79
-3.40
-2.87
-2.31
-1.86
-1.64
-1.71
-2.00
-2.37
-2.62
-2.55
-2.10
-1.28
-0.22
0.94
2.08
3.14
4.12
5.01
5.75
6.30
6.61
6.70
6.65
6.58
6.54
6.49
6.30
5.79
4.83
3.42
1.65
-0.24
-1.99
-3.38
-4.25
-4.61
-4.57
-4.31
-4.00
-3.77
-3.67
-3.68
-3.80
-4.05
-4.44
-4.98
-5.66
-6.35
-6.86
-7.01
-6.72
-6.09
-5.37
-4.86
-4.74
-5.01
-5.49
-5.92
-6.15
-6.12
-5.93
-5.68
-5.43
-5.16
-4.84
-4.48
-4.13
-3.84
-3.61
-3.42
-3.21
-2.96
-2.60
-2.09
-1.37
-0.42
0.74
2.03
3.39
4.81
6.22
7.50
8.35
8.36
7.18
4.73
1.30
-2.50
-6.00
-8.74
-10.56
-11.64
-12.26
-12.63
-12.89
-13.09
-13.34
-13.78
-14.65
-16.08
-18.03
-20.25
-22.37
-23.95
-24.70
-24.50
-23.44
-21.75
-19.69
-17.49
-15.28
-13.08
-10.91
-8.76
-6.69
-4.74
-2.96
-1.32
0.20
1.67
3.11
4.50
5.80
6.95
7.86
8.45
8.60
8.22
7.28
5.78
3.82
1.62
-0.59
-2.54
-4.08
-5.14
-5.81
-6.20
-6.42
-6.54
-6.51
-6.27
-5.83
-5.28
-4.79
-4.53
-4.54
-4.77
-5.02
-5.13
-4.99
-4.60
-4.02
-3.37
-2.76
-2.26
-1.93
-1.78
-1.79
-1.91
-2.08
-2.24
-2.36
-2.41
-2.34
-2.06
-1.53
-0.76
0.14
1.00
1.63
1.96
2.02
1.94
1.84
1.79
1.76
1.67
1.43
1.00
0.41
-0.32
-1.15
-2.00
-2.77
-3.34
-3.62
-3.61
-3.38
-3.11
-2.93
-2.89
-2.88
-2.70
-2.15
-1.07
0.50
2.43
4.49
6.48
8.22
9.65
10.74
11.50
11.96
12.15
12.10
11.89
11.60
11.29
11.01
10.75
10.46
10.10
9.61
8.94
8.10
7.13
6.11
5.16
4.42
3.92
3.64
3.46
3.24
2.86
2.33
1.74
1.25
0.94
0.82
0.78
0.67
0.37
-0.14
-0.79
-1.43
-1.95
-2.24
-2.29
-2.11
-1.70
-1.10
-0.34
0.52
1.38
2.15
2.77
3.32
3.92
4.70
5.77
7.09
8.53
9.94
11.21
12.29
13.19
13.91
14.38
14.49
14.09
13.14
11.74
10.11
8.55
7.30
6.42
5.82
5.24
4.45
3.32
1.87
0.27
-1.27
-2.61
-3.69
-4.52
-5.11
-5.38
-5.23
-4.60
-3.52
-2.18
-0.83
0.30
1.07
1.51
1.74
1.91
2.11
2.36
2.59
2.69
2.59
2.28
1.79
1.24
0.75
0.44
0.34
0.45
0.66
0.87
1.02
1.07
1.09
1.21
1.54
2.15
3.03
4.07
5.10
5.99
6.64
7.06
7.24
7.15
6.73
5.90
4.65
3.11
1.52
0.13
-0.90
-1.55
-1.97
-2.36
-2.89
-3.64
-4.59
-5.68
-6.82
-7.93
-8.92
-9.70
-10.19
-10.32
-10.07
-9.46
-8.57
-7.51
-6.40
-5.35
-4.46
-3.74
-3.20
-2.79
-2.51
-2.38
-2.40
-2.58
-2.87
-3.20
-3.50
-3.73
-3.87
-3.97
-4.12
-4.40
-4.89
-5.54
-6.25
-6.79
-6.97
-6.66
-5.90
-4.86
-3.75
-2.70
-1.72
-0.74
0.36
1.59
2.87
4.02
4.88
5.34
5.38
5.08
4.57
4.03
3.58
3.30
3.17
3.08
2.91
2.58
2.04
1.34
0.59
-0.12
-0.66
-0.93
-0.82
-0.27
0.69
1.91
3.14
4.12
4.67
4.73
4.40
3.83
3.22
2.73
2.51
2.69
3.25
4.07
4.85
5.28
5.14
4.40
3.28
2.10
1.15
0.54
0.22
0.04
-0.11
-0.25
-0.26
-0.05
0.47
1.25
2.18
3.07
3.81
4.31
4.59
4.68
4.62
4.40
3.99
3.38
2.62
1.84
1.13
0.57
0.10
-0.36
-0.92
-1.58
-2.21
-2.62
-2.66
-2.29
-1.61
-0.78
0.05
0.84
1.63
2.49
3.45
4.42
5.25
5.74
5.79
5.39
4.67
3.83
3.00
2.25
1.49
0.62
-0.47
-1.70
-2.88
-3.72
-4.04
-3.87
-3.44
-3.09
-3.09
-3.47
-4.01
-4.39
-4.34
-3.78
-2.78
-1.56
-0.28
0.97
2.15
3.26
4.18
4.75
4.81
4.26
3.16
1.66
0.01
-1.60
-3.08
-4.40
-5.58
-6.64
-7.54
-8.25
-8.72
-8.98
-9.09
-9.15
-9.20
-9.23
-9.15
-8.83
-8.18
-7.21
-6.02
-4.75
-3.53
-2.42
-1.42
-0.53
0.26
0.92
1.40
1.70
1.84
1.83
1.68
1.38
0.95
0.45
-0.03
-0.37
-0.53
-0.52
-0.42
-0.35
-0.37
-0.47
-0.60
-0.71
-0.72
-0.58
-0.26
0.25
0.89
1.62
2.37
3.13
3.94
4.80
5.67
6.42
6.90
7.04
6.87
6.52
6.19
5.99
5.90
5.83
5.62
5.12
4.28
3.12
1.76
0.36
-0.92
-1.92
-2.61
-3.00
-3.13
-3.09
-2.91
-2.63
-2.26
-1.82
-1.36
-0.90
-0.44
0.03
0.51
0.93
1.18
1.14
0.75
0.09
-0.69
-1.41
-1.93
-2.22
-2.35
-2.41
-2.51
-2.71
-3.07
-3.59
-4.23
-4.90
-5.40
-5.54
-5.16
-4.26
-2.99
-1.57
-0.20
1.00
2.00
2.81
3.41
3.73
3.73
3.43
2.90
2.26
1.60
0.96
0.35
-0.22
-0.69
-1.04
-1.25
-1.40
-1.62
-2.00
-2.57
-3.22
-3.79
-4.09
-4.04
-3.64
-2.97
-2.09
-1.10
-0.01
1.12
2.19
3.10
3.73
4.04
4.04
3.85
3.59
3.35
3.16
2.98
2.71
2.30
1.73
1.05
0.37
-0.22
-0.70
-1.10
-1.49
-1.95
-2.46
-2.93
-3.19
-3.06
-2.49
-1.52
-0.33
0.85
1.85
2.57
3.02
3.29
3.46
3.59
3.71
3.79
3.80
3.76
3.73
3.75
3.84
3.93
3.90
3.62
3.00
2.02
0.75
-0.61
-1.86
-2.76
-3.18
-3.06
-2.49
-1.63
-0.67
0.24
0.99
1.57
2.00
2.31
2.53
2.66
2.73
2.74
2.71
2.62
2.42
2.05
1.48
0.74
-0.06
-0.80
-1.37
-1.75
-1.98
-2.18
-2.43
-2.73
-3.00
-3.08
-2.81
-2.09
-0.92
0.58
2.22
3.79
5.09
5.99
6.46
6.50
6.19
5.62
4.91
4.15
3.43
2.81
2.28
1.81
1.36
0.91
0.47
0.05
-0.30
-0.60
-0.87
-1.18
-1.54
-1.95
-2.33
-2.55
-2.52
-2.16
-1.48
-0.55
0.51
1.58
2.55
3.38
4.01
4.37
4.37
3.91
2.96
1.61
0.07
-1.39
-2.52
-3.21
-3.52
-3.61
-3.72
-4.01
-4.54
-5.26
-6.07
-6.87
-7.55
-8.03
-8.21
-7.98
-7.28
-6.16
-4.75
-3.27
-1.94
-0.86
-0.02
0.65
1.26
1.82
2.25
2.42
2.18
1.50
0.41
-0.93
-2.33
-3.60
-4.63
-5.34
-5.75
-5.94
-6.02
-6.11
-6.33
-6.72
-7.26
-7.80
-8.14
-8.05
-7.40
-6.17
-4.51
-2.65
-0.81
0.89
2.37
3.66
4.75
5.62
6.22
6.56
6.70
6.74
6.79
6.90
7.00
6.99
6.77
6.28
5.58
4.76
3.97
3.32
2.88
2.68
2.69
2.85
3.17
3.65
4.38
5.36
6.58
7.88
9.09
10.01
10.56
10.73
10.61
10.30
9.83
9.20
8.36
7.34
6.23
5.13
4.09
3.10
2.05
0.86
-0.47
-1.86
-3.19
-4.37
-5.41
-6.36
-7.29
-8.19
-8.95
-9.40
-9.45
-9.09
-8.41
-7.57
-6.71
-5.89
-5.14
-4.45
-3.86
-3.40
-3.13
-3.08
-3.26
-3.64
-4.16
-4.71
-5.21
-5.59
-5.82
-5.92
-5.97
-6.03
-6.14
-6.29
-6.46
-6.59
-6.63
-6.57
-6.34
-5.91
-5.18
-4.14
-2.79
-1.24
0.34
1.80
3.00
3.89
4.46
4.73
4.72
4.41
3.82
3.00
2.04
1.11
0.36
-0.13
-0.34
-0.35
-0.29
-0.26
-0.37
-0.64
-1.06
-1.54
-1.99
-2.27
-2.28
-1.92
-1.15
-0.02
1.36
2.82
4.14
5.16
5.79
6.05
6.01
5.76
5.34
4.76
4.03
3.18
2.29
1.48
0.84
0.44
0.26
0.21
0.17
0.00
-0.40
-1.09
-2.00
-2.98
-3.83
-4.35
-4.38
-3.89
-2.95
-1.71
-0.33
1.03
2.25
3.25
3.95
4.35
4.44
4.29
3.98
3.61
3.25
2.92
2.56
2.12
1.58
0.97
0.38
-0.10
-0.47
-0.78
-1.15
-1.67
-2.33
-3.03
-3.57
-3.80
-3.62
-3.05
-2.17
-1.11
0.01
1.12
2.15
3.02
3.66
4.04
4.17
4.13
3.98
3.80
3.55
3.18
2.64
1.90
1.00
0.04
-0.88
-1.69
-2.34
-2.83
-3.19
-3.48
-3.75
-4.03
-4.30
-4.49
-4.49
-4.19
-3.55
-2.59
-1.40
-0.10
1.17
2.29
3.14
3.61
3.66
3.30
2.62
1.78
0.94
0.22
-0.32
-0.70
-1.01
-1.28
-1.52
-1.72
-1.86
-1.99
-2.18
-2.53
-3.05
-3.63
-4.06
-4.13
-3.67
-2.72
-1.40
0.06
1.49
2.73
3.70
4.34
4.59
4.46
4.00
3.37
2.75
2.25
1.91
1.62
1.25
0.68
-0.09
-0.95
-1.75
-2.36
-2.75
-3.05
-3.37
-3.83
-4.37
-4.86
-5.11
-4.96
-4.37
-3.38
-2.09
-0.63
0.91
2.40
3.71
4.71
5.28
5.42
5.19
4.72
4.19
3.68
3.24
2.84
2.44
1.96
1.38
0.75
0.13
-0.37
-0.72
-0.95
-1.16
-1.47
-1.94
-2.53
-3.09
-3.43
-3.41
-2.96
-2.10
-0.92
0.43
1.80
2.99
3.86
4.33
4.41
4.22
3.89
3.53
3.20
2.91
2.62
2.28
1.85
1.28
0.55
-0.29
-1.20
-2.09
-2.92
-3.65
-4.30
-4.86
-5.27
-5.46
-5.30
-4.75
-3.80
-2.54
-1.11
0.33
1.64
2.72
3.52
4.01
4.19
4.03
3.51
2.64
1.49
0.22
-0.96
-1.89
-2.51
-2.92
-3.27
-3.71
-4.29
-4.96
-5.62
-6.18
-6.62
-6.93
-7.14
-7.21
-7.11
-6.84
-6.41
-5.88
-5.29
-4.63
-3.87
-3.00
-2.08
-1.24
-0.63
-0.35
-0.39
-0.60
-0.81
-0.84
-0.59
-0.06
0.65
1.41
2.08
2.61
2.97
3.20
3.32
3.37
3.35
3.31
3.32
3.46
3.79
4.32
5.02
5.81
6.63
7.43
8.21
8.96
9.59
9.98
9.98
9.55
8.72
7.67
6.55
5.52
4.59
3.75
2.95
2.20
1.51
0.91
0.38
-0.11
-0.61
-1.09
-1.48
-1.70
-1.69
-1.40
-0.80
0.14
1.42
2.99
4.70
6.34
7.69
8.63
9.16
9.34
9.27
8.98
8.49
7.78
6.91
5.96
5.03
4.19
3.44
2.67
1.79
0.74
-0.50
-1.85
-3.21
-4.51
-5.71
-6.76
-7.64
-8.24
-8.49
-8.32
-7.75
-6.91
-6.01
-5.26
-4.80
-4.67
-4.78
-4.99
-5.14
-5.15
-5.00
-4.79
-4.62
-4.60
-4.73
-4.95
-5.12
-5.12
-4.92
-4.61
-4.33
-4.21
-4.25
-4.34
-4.32
-4.07
-3.53
-2.78
-1.91
-0.99
-0.05
0.94
1.96
2.94
3.73
4.18
4.16
3.68
2.80
1.68
0.51
-0.56
-1.44
-2.11
-2.62
-3.06
-3.52
-4.06
-4.69
-5.37
-5.99
-6.45
-6.64
-6.49
-5.99
-5.16
-4.07
-2.80
-1.39
0.13
1.69
3.26
4.74
6.03
7.03
7.66
7.92
7.85
7.56
7.15
6.72
6.29
5.83
5.27
4.58
3.78
2.96
2.24
1.70
1.36
1.17
1.06
0.98
0.96
1.11
1.52
2.25
3.27
4.46
5.68
6.77
7.56
7.95
7.84
7.20
6.08
4.66
3.18
1.90
1.02
0.59
0.48
0.50
0.40
0.03
-0.65
-1.60
-2.71
-3.86
-4.95
-5.88
-6.53
-6.81
-6.64
-6.00
-4.97
-3.69
-2.32
-1.01
0.13
1.03
1.66
1.98
1.98
1.62
0.95
0.07
-0.88
-1.76
-2.45
-2.94
-3.34
-3.75
-4.30
-5.00
-5.82
-6.68
-7.51
-8.25
-8.86
-9.27
-9.41
-9.21
-8.65
-7.77
-6.66
-5.44
-4.18
-2.94
-1.80
-0.86
-0.28
-0.13
-0.39
-0.88
-1.38
-1.64
-1.60
-1.31
-0.96
-0.71
-0.64
-0.71
-0.79
-0.76
-0.52
-0.07
0.56
1.26
1.94
2.49
2.85
2.99
2.97
2.86
2.77
2.75
2.79
2.82
2.74
2.45
1.90
1.17
0.38
-0.30
-0.81
-1.14
-1.38
-1.62
-1.88
-2.14
-2.35
-2.52
-2.72
-3.07
-3.62
-4.32
-4.96
-5.31
-5.18
-4.55
-3.53
-2.32
-1.14
-0.14
0.61
1.08
1.29
1.30
1.17
0.96
0.75
0.56
0.40
0.26
0.14
0.06
0.05
0.13
0.28
0.46
0.60
0.70
0.81
1.05
1.53
2.30
3.34
4.56
5.84
7.13
8.37
9.52
10.51
11.21
11.51
11.38
10.84
10.02
9.06
8.10
7.20
6.40
5.64
4.89
4.07
3.15
2.13
1.06
0.02
-0.93
-1.73
-2.31
-2.59
-2.48
-1.88
-0.77
0.73
2.42
4.09
5.54
6.72
7.63
8.30
8.74
8.91
8.74
8.25
7.50
6.60
5.64
4.68
3.67
2.56
1.25
-0.29
-2.02
-3.86
-5.66
-7.26
-8.51
-9.33
-9.69
-9.61
-9.18
-8.50
-7.66
-6.79
-5.98
-5.34
-4.94
-4.84
-5.03
-5.51
-6.23
-7.15
-8.20
-9.31
-10.36
-11.26
-11.95
-12.44
-12.79
-13.15
-13.63
-14.29
-15.10
-15.93
-16.60
-16.87
-16.62
-15.80
-14.53
-12.97
-11.28
-9.54
-7.74
-5.84
-3.84
-1.86
-0.09
1.25
2.02
2.19
1.87
1.26
0.52
-0.19
-0.79
-1.25
-1.57
-1.78
-1.95
-2.12
-2.36
-2.66
-2.95
-3.14
-3.10
-2.77
-2.17
-1.42
-0.71
-0.22
-0.06
-0.26
-0.77
-1.47
-2.24
-3.02
-3.77
-4.49
-5.17
-5.78
-6.23
-6.43
-6.26
-5.62
-4.45
-2.73
-0.52
2.07
4.86
7.72
10.49
13.09
15.47
17.63
19.60
21.41
23.04
24.41
25.43
26.03
26.19
25.97
25.47
24.71
23.68
22.29
20.47
18.26
15.77
13.25
10.89
8.81
7.01
5.44
4.07
2.89
1.91
1.13
0.53
0.04
-0.38
-0.70
-0.84
-0.70
-0.18
0.74
1.99
3.43
4.93
6.38
7.75
9.08
10.34
11.50
12.43
13.00
13.13
12.81
12.17
11.38
10.61
9.95
9.42
8.98
8.56
8.09
7.54
6.88
6.11
5.23
4.17
2.90
1.43
-0.13
-1.56
-2.62
-3.08
-2.92
-2.22
-1.23
-0.19
0.72
1.43
1.91
2.16
2.18
1.98
1.62
1.15
0.66
0.18
-0.27
-0.73
-1.18
-1.57
-1.83
-1.84
-1.58
-1.11
-0.59
-0.21
-0.12
-0.31
-0.65
-0.91
-0.89
-0.54
0.04
0.68
1.18
1.49
1.69
1.91
2.27
2.76
3.27
3.66
3.88
4.04
4.33
4.95
6.03
7.48
9.05
10.40
11.19
11.17
10.18
8.22
5.41
2.01
-1.59
-4.96
-7.76
-9.79
-11.07
-11.82
-12.32
-12.80
-13.39
-14.09
-14.79
-15.35
-15.59
-15.42
-14.84
-13.95
-12.95
-12.06
-11.40
-10.98
-10.70
-10.47
-10.22
-9.99
-9.85
-9.83
-9.90
-9.95
-9.89
-9.70
-9.43
-9.18
-9.02
-8.96
-8.94
-8.86
-8.61
-8.14
-7.43
-6.55
-5.58
-4.64
-3.83
-3.26
-2.97
-3.02
-3.38
-4.01
-4.84
-5.84
-6.94
-8.09
-9.28
-10.51
-11.84
-13.39
-15.26
-17.48
-19.89
-22.14
-23.82
-24.57
-24.23
-22.90
-20.82
-18.27
-15.48
-12.58
-9.62
-6.69
-3.90
-1.45
0.49
1.83
2.62
2.99
3.16
3.29
3.46
3.68
3.86
3.94
3.85
3.61
3.22
2.73
2.12
1.47
0.84
0.38
0.18
0.22
0.38
0.45
0.27
-0.20
-0.78
-1.21
-1.25
-0.78
0.08
1.10
1.98
2.48
2.52
2.16
1.54
0.84
0.20
-0.29
-0.65
-0.87
-1.00
-1.06
-1.08
-1.07
-1.11
-1.21
-1.37
-1.53
-1.59
-1.46
-1.11
-0.55
0.16
0.93
1.70
2.38
2.90
3.22
3.34
3.32
3.26
3.21
3.15
2.99
2.64
2.14
1.58
1.14
0.92
0.89
0.85
0.62
0.07
-0.73
-1.56
-2.17
-2.38
-2.16
-1.57
-0.76
0.16
1.14
2.13
3.13
4.08
4.89
5.43
5.61
5.38
4.80
4.04
3.27
2.69
2.40
2.38
2.51
2.59
2.45
1.99
1.23
0.25
-0.78
-1.70
-2.39
-2.76
-2.78
-2.45
-1.79
-0.85
0.26
1.41
2.45
3.24
3.74
4.00
4.09
4.12
4.13
4.13
4.09
3.99
3.79
3.50
3.11
2.62
2.06
1.49
0.94
0.40
-0.18
-0.84
-1.59
-2.32
-2.84
-2.98
-2.65
-1.91
-0.89
0.24
1.39
2.49
3.52
4.43
5.12
5.52
5.62
5.45
5.11
4.70
4.25
3.76
3.23
2.68
2.16
1.69
1.27
0.80
0.19
-0.63
-1.63
-2.67
-3.58
-4.18
-4.39
-4.19
-3.66
-2.84
-1.80
-0.60
0.68
1.89
2.90
3.59
3.94
3.96
3.73
3.32
2.77
2.14
1.48
0.88
0.39
0.02
-0.26
-0.53
-0.87
-1.32
-1.92
-2.66
-3.48
-4.30
-5.00
-5.40
-5.32
-4.66
-3.43
-1.73
0.19
2.11
3.84
5.28
6.45
7.39
8.13
8.66
8.92
8.84
8.46
7.88
7.27
6.73
6.29
5.85
5.23
4.29
2.96
1.29
-0.57
-2.50
-4.35
-6.02
-7.35
-8.16
-8.28
-7.61
-6.21
-4.29
-2.17
-0.14
1.62
3.02
4.09
4.80
5.11
4.92
4.18
2.97
1.53
0.19
-0.79
-1.29
-1.39
-1.31
-1.28
-1.43
-1.75
-2.07
-2.26
-2.23
-2.02
-1.69
-1.30
-0.80
-0.05
1.06
2.54
4.24
5.90
7.21
7.98
8.16
7.87
7.32
6.67
6.01
5.35
4.67
3.95
3.25
2.64
2.18
1.88
1.66
1.39
0.97
0.34
-0.43
-1.16
-1.66
-1.77
-1.44
-0.73
0.23
1.30
2.35
3.34
4.24
5.01
5.54
5.68
5.31
4.41
3.14
1.74
0.48
-0.48
-1.13
-1.57
-1.92
-2.26
-2.63
-3.07
-3.63
-4.39
-5.35
-6.41
-7.32
-7.83
-7.76
-7.09
-5.97
-4.63
-3.30
-2.13
-1.20
-0.59
-0.33
-0.43
-0.86
-1.53
-2.29
-3.01
-3.59
-3.97
-4.12
-4.06
-3.83
-3.51
-3.21
-3.03
-3.00
-3.11
-3.28
-3.41
-3.38
-3.11
-2.58
-1.82
-0.86
0.23
1.37
2.49
3.49
4.29
4.83
5.07
4.99
4.65
4.13
3.49
2.75
1.91
0.91
-0.20
-1.32
-2.25
-2.78
-2.86
-2.57
-2.14
-1.84
-1.84
-2.14
-2.62
-3.05
-3.20
-2.94
-2.22
-1.06
0.45
2.16
3.88
5.36
6.38
6.78
6.55
5.78
4.68
3.49
2.39
1.49
0.78
0.21
-0.27
-0.68
-1.02
-1.36
-1.78
-2.37
-3.15
-4.03
-4.77
-5.10
-4.88
-4.11
-2.99
-1.74
-0.53
0.59
1.65
2.72
3.78
4.74
5.45
5.80
5.77
5.41
4.79
4.02
3.16
2.30
1.50
0.80
0.21
-0.28
-0.72
-1.14
-1.56
-1.99
-2.45
-2.89
-3.26
-3.42
-3.26
-2.64
-1.54
-0.05
1.66
3.35
4.78
5.82
6.40
6.60
6.50
6.23
5.85
5.36
4.75
3.99
3.13
2.25
1.45
0.75
0.12
-0.51
-1.20
-1.95
-2.66
-3.24
-3.63
-3.82
-3.80
-3.56
-3.03
-2.17
-0.98
0.43
1.84
2.99
3.70
3.94
3.79
3.42
2.98
2.57
2.20
1.80
1.31
0.69
0.01
-0.65
-1.21
-1.63
-1.95
-2.23
-2.55
-2.93
-3.36
-3.73
-3.93
-3.85
-3.43
-2.68
-1.66
-0.51
0.67
1.76
2.73
3.51
4.05
4.30
4.20
3.76
3.08
2.28
1.50
0.79
0.15
-0.48
-1.12
-1.71
-2.18
-2.47
-2.60
-2.70
-2.89
-3.22
-3.63
-3.92
-3.89
-3.38
-2.42
-1.15
0.20
1.41
2.39
3.08
3.53
3.73
3.71
3.46
2.99
2.35
1.64
0.96
0.41
0.03
-0.19
-0.33
-0.49
-0.75
-1.17
-1.77
-2.51
-3.25
-3.84
-4.08
-3.83
-3.05
-1.85
-0.38
1.17
2.66
4.01
5.16
6.08
6.67
6.87
6.66
6.07
5.25
4.32
3.38
2.49
1.69
1.00
0.44
0.01
-0.37
-0.82
-1.43
-2.19
-3.01
-3.68
-4.06
-4.07
-3.72
-3.09
-2.28
-1.31
-0.22
0.99
2.22
3.34
4.22
4.76
4.91
4.71
4.17
3.36
2.33
1.22
0.17
-0.64
-1.13
-1.29
-1.25
-1.20
-1.37
-1.87
-2.74
-3.86
-5.01
-5.95
-6.46
-6.45
-5.95
-5.11
-4.10
-3.03
-1.96
-0.86
0.26
1.36
2.30
2.93
3.12
2.86
2.22
1.35
0.42
-0.42
-1.10
-1.60
-1.97
-2.31
-2.66
-3.09
-3.58
-4.09
-4.54
-4.88
-5.02
-4.90
-4.48
-3.74
-2.68
-1.40
0.01
1.41
2.66
3.69
4.41
4.83
4.97
4.83
4.46
3.84
3.01
2.02
0.98
0.02
-0.76
-1.32
-1.69
-1.94
-2.18
-2.45
-2.77
-3.12
-3.42
-3.61
-3.60
-3.30
-2.67
-1.70
-0.45
0.94
2.34
3.61
4.68
5.49
5.97
6.06
5.70
4.94
3.93
2.90
2.07
1.55
1.36
1.38
1.46
1.45
1.27
0.84
0.17
-0.72
-1.72
-2.63
-3.21
-3.24
-2.66
-1.54
-0.12
1.34
2.62
3.63
4.35
4.79
4.96
4.83
4.38
3.61
2.64
1.64
0.80
0.22
-0.10
-0.28
-0.47
-0.81
-1.34
-1.99
-2.65
-3.22
-3.67
-3.98
-4.14
-4.14
-3.93
-3.49
-2.85
-2.04
-1.16
-0.24
0.66
1.46
2.04
2.29
2.12
1.55
0.70
-0.24
-1.05
-1.64
-2.01
-2.24
-2.45
-2.69
-2.95
-3.19
-3.34
-3.43
-3.52
-3.69
-3.97
-4.30
-4.49
-4.34
-3.75
-2.74
-1.47
-0.18
0.97
1.95
2.77
3.47
3.96
4.13
3.86
3.13
2.13
1.09
0.27
-0.20
-0.36
-0.39
-0.49
-0.78
-1.31
-2.00
-2.71
-3.32
-3.73
-3.89
-3.75
-3.33
-2.66
-1.80
-0.84
0.15
1.11
2.02
2.83
3.54
4.07
4.35
4.32
3.97
3.36
2.60
1.83
1.15
0.60
0.19
-0.11
-0.33
-0.52
-0.72
-0.97
-1.26
-1.60
-1.89
-2.08
-2.12
-1.99
-1.71
-1.28
-0.70
0.04
0.89
1.74
2.43
2.84
2.92
2.74
2.43
2.11
1.84
1.60
1.34
1.04
0.68
0.31
-0.05
-0.43
-0.86
-1.38
-2.00
-2.66
-3.26
-3.70
-3.89
-3.81
-3.44
-2.85
-2.09
-1.21
-0.27
0.69
1.60
2.38
2.93
3.18
3.11
2.78
2.28
1.71
1.13
0.56
0.03
-0.46
-0.87
-1.16
-1.33
-1.42
-1.54
-1.84
-2.44
-3.39
-4.63
-5.98
-7.23
-8.19
-8.80
-9.10
-9.19
-9.14
-8.97
-8.60
-7.99
-7.17
-6.23
-5.29
-4.41
-3.51
-2.43
-1.02
0.76
2.85
5.08
7.30
9.40
11.37
13.22
14.94
16.45
17.62
18.32
18.43
17.95
16.95
15.57
14.02
12.47
11.04
9.77
8.62
7.52
6.38
5.12
3.68
2.06
0.29
-1.49
-3.13
-4.50
-5.53
-6.28
-6.85
-7.38
-7.93
-8.53
-9.15
-9.77
-10.40
-11.04
-11.67
-12.15
-12.30
-11.95
-11.03
-9.60
-7.86
-6.04
-4.33
-2.84
-1.57
-0.50
0.36
0.98
1.33
1.40
1.27
1.02
0.75
0.51
0.31
0.15
0.01
-0.13
-0.29
-0.52
-0.89
-1.43
-2.11
-2.87
-3.56
-4.05
-4.22
-3.99
-3.35
-2.33
-1.04
0.35
1.64
2.69
3.37
3.66
3.58
3.20
2.61
1.89
1.11
0.36
-0.29
-0.81
-1.20
-1.51
-1.85
-2.29
-2.90
-3.63
-4.35
-4.90
-5.16
-5.06
-4.63
-3.95
-3.12
-2.20
-1.22
-0.24
0.71
1.53
2.17
2.57
2.73
2.66
2.43
2.10
1.76
1.50
1.38
1.41
1.54
1.63
1.57
1.23
0.59
-0.31
-1.33
-2.31
-3.06
-3.42
-3.29
-2.69
-1.73
-0.61
0.47
1.35
1.99
2.41
2.73
3.03
3.34
3.61
3.73
3.58
3.07
2.21
1.12
0.00
-0.92
-1.49
-1.64
-1.45
-1.10
-0.79
-0.68
-0.84
-1.26
-1.85
-2.44
-2.84
-2.87
-2.43
-1.50
-0.22
1.22
2.58
3.65
4.31
4.58
4.51
4.22
3.81
3.32
2.81
2.27
1.72
1.18
0.66
0.18
-0.26
-0.69
-1.16
-1.70
-2.29
-2.87
-3.34
-3.58
-3.53
-3.17
-2.55
-1.75
-0.84
0.12
1.12
2.12
3.06
3.82
4.30
4.44
4.26
3.83
3.29
2.71
2.12
1.51
0.85
0.18
-0.41
-0.85
-1.13
-1.31
-1.48
-1.77
-2.19
-2.72
-3.25
-3.64
-3.73
-3.41
-2.67
-1.60
-0.38
0.74
1.55
1.95
1.97
1.73
1.40
1.08
0.82
0.58
0.33
0.03
-0.31
-0.65
-0.93
-1.16
-1.36
-1.63
-2.05
-2.64
-3.31
-3.90
-4.20
-4.06
-3.47
-2.52
-1.39
-0.26
0.74
1.58
2.30
2.95
3.51
3.94
4.11
3.95
3.47
2.75
1.95
1.19
0.54
0.01
-0.48
-0.95
-1.44
-1.93
-2.42
-2.91
-3.41
-3.88
-4.25
-4.40
-4.24
-3.71
-2.86
-1.79
-0.67
0.38
1.26
1.96
2.49
2.86
3.07
3.10
2.89
2.44
1.79
1.06
0.36
-0.26
-0.80
-1.33
-1.93
-2.62
-3.37
-4.14
-4.88
-5.58
-6.22
-6.73
-6.99
-6.87
-6.31
-5.35
-4.15
-2.97
-1.99
-1.34
-1.02
-0.97
-1.11
-1.42
-1.94
-2.67
-3.55
-4.41
-5.01
-5.14
-4.70
-3.73
-2.45
-1.09
0.11
0.97
1.43
1.51
1.32
1.05
0.89
1.05
1.59
2.47
3.59
4.84
6.15
7.52
8.94
10.34
11.59
12.54
13.17
13.55
13.90
14.44
15.25
16.24
17.15
17.65
17.46
16.46
14.70
12.36
9.71
7.04
4.56
2.45
0.82
-0.32
-0.98
-1.27
-1.31
-1.21
-1.06
-0.88
-0.70
-0.54
-0.49
-0.69
-1.28
-2.33
-3.77
-5.38
-6.79
-7.61
-7.56
-6.54
-4.71
-2.36
0.12
2.41
4.34
5.93
7.38
9.01
11.10
13.86
17.23
20.93
24.49
27.41
29.30
30.04
29.75
28.70
27.14
25.24
23.01
20.48
17.69
14.75
11.88
9.26
6.97
5.00
3.23
1.50
-0.31
-2.24
-4.25
-6.21
-7.95
-9.27
-10.01
-10.08
-9.53
-8.52
-7.41
-6.56
-6.30
-6.74
-7.72
-8.95
-10.04
-10.73
-10.96
-10.86
-10.65
-10.57
-10.76
-11.20
-11.82
-12.45
-12.98
-13.32
-13.51
-13.65
-13.86
-14.24
-14.82
-15.58
-16.48
-17.44
-18.44
-19.39
-20.20
-20.72
-20.84
-20.47
-19.64
-18.44
-17.04
-15.60
-14.24
-13.01
-11.85
-10.68
-9.37
-7.88
-6.26
-4.62
-3.13
-1.92
-1.03
-0.41
0.01
0.38
0.78
1.29
1.98
2.90
4.09
5.57
7.25
8.91
10.27
11.07
11.22
10.91
10.57
10.63
11.33
12.56
13.90
14.84
15.11
14.75
14.04
13.28
12.55
11.65
10.31
8.34
5.85
3.18
0.74
-1.17
-2.45
-3.20
-3.64
-3.95
-4.28
-4.71
-5.28
-6.03
-6.94
-7.93
-8.83
-9.42
-9.51
-8.96
-7.76
-6.02
-4.00
-2.00
-0.39
0.53
0.56
-0.30
-1.89
-3.92
-6.10
-8.18
-10.00
-11.49
-12.59
-13.28
-13.56
-13.52
-13.30
-13.07
-12.93
-12.87
-12.79
-12.55
-12.06
-11.38
-10.62
-9.90
-9.25
-8.58
-7.79
-6.83
-5.75
-4.69
-3.78
-3.13
-2.74
-2.56
-2.47
-2.39
-2.25
-2.01
-1.66
-1.19
-0.60
0.07
0.79
1.53
2.28
2.99
3.61
3.98
3.98
3.53
2.67
1.55
0.40
-0.58
-1.31
-1.82
-2.23
-2.68
-3.25
-3.94
-4.65
-5.28
-5.71
-5.88
-5.79
-5.43
-4.83
-4.03
-3.04
-1.85
-0.50
0.95
2.37
3.58
4.39
4.70
4.50
3.92
3.18
2.52
2.06
1.84
1.74
1.64
1.41
1.03
0.51
-0.11
-0.82
-1.60
-2.35
-2.92
-3.13
-2.82
-1.99
-0.82
0.42
1.51
2.38
3.09
3.75
4.44
5.09
5.57
5.74
5.56
5.11
4.51
3.89
3.29
2.70
2.09
1.46
0.82
0.16
-0.53
-1.26
-2.02
-2.74
-3.30
-3.54
-3.34
-2.67
-1.56
-0.12
1.51
3.17
4.67
5.83
6.51
6.65
6.31
5.66
4.90
4.25
3.80
3.57
3.45
3.32
3.05
2.53
1.71
0.59
-0.74
-2.10
-3.26
-3.97
-4.10
-3.62
-2.64
-1.38
-0.07
1.15
2.23
3.22
4.17
5.06
5.83
6.33
6.45
6.17
5.54
4.69
3.78
2.95
2.24
1.69
1.25
0.84
0.35
-0.30
-1.14
-2.10
-2.98
-3.55
-3.60
-3.05
-1.95
-0.49
1.11
2.67
4.08
5.29
6.31
7.15
7.76
8.09
8.10
7.77
7.18
6.47
5.80
5.28
4.92
4.62
4.22
3.56
2.55
1.25
-0.16
-1.42
-2.28
-2.57
-2.23
-1.37
-0.19
1.06
2.20
3.14
3.88
4.48
4.99
5.46
5.85
6.09
6.06
5.70
5.00
4.04
2.97
1.96
1.14
0.50
-0.04
-0.63
-1.34
-2.12
-2.83
-3.29
-3.36
-3.04
-2.36
-1.41
-0.26
1.03
2.38
3.65
4.66
5.27
5.40
5.06
4.38
3.48
2.51
1.56
0.72
0.08
-0.33
-0.48
-0.45
-0.35
-0.36
-0.62
-1.23
-2.12
-3.12
-3.91
-4.22
-3.85
-2.80
-1.24
0.55
2.31
3.85
5.05
5.92
6.44
6.65
6.57
6.21
5.64
4.96
4.28
3.69
3.22
2.85
2.48
2.01
1.31
0.36
-0.82
-2.11
-3.35
-4.37
-5.02
-5.21
-4.91
-4.15
-3.05
-1.78
-0.50
0.65
1.56
2.21
2.61
2.77
2.74
2.55
2.24
1.83
1.31
0.67
-0.13
-1.04
-1.98
-2.79
-3.35
-3.66
-3.82
-3.99
-4.28
-4.63
-4.87
-4.77
-4.21
-3.24
-2.05
-0.87
0.16
0.99
1.67
2.19
2.55
2.70
2.61
2.33
1.91
1.46
0.99
0.54
0.11
-0.26
-0.56
-0.83
-1.19
-1.74
-2.54
-3.49
-4.39
-5.03
-5.22
-4.92
-4.19
-3.15
-1.89
-0.48
1.00
2.42
3.63
4.48
4.88
4.80
4.29
3.49
2.52
1.56
0.74
0.16
-0.17
-0.30
-0.34
-0.40
-0.56
-0.86
-1.28
-1.76
-2.16
-2.29
-1.90
-0.85
0.86
3.06
5.45
7.77
9.88
11.74
13.36
14.66
15.43
15.43
14.51
12.74
10.44
8.00
5.70
3.66
1.75
-0.24
-2.49
-5.00
-7.62
-10.14
-12.38
-14.32
-15.99
-17.45
-18.67
-19.50
-19.72
-19.26
-18.26
-17.09
-16.12
-15.50
-15.08
-14.49
-13.38
-11.66
-9.61
-7.65
-6.13
-5.09
-4.28
-3.36
-2.10
-0.54
1.03
2.28
3.01
3.24
3.20
3.19
3.46
4.11
5.08
6.23
7.41
8.55
9.65
10.77
11.93
13.07
14.03
14.63
14.71
14.22
13.21
11.78
10.13
8.43
6.88
5.61
4.69
4.09
3.67
3.22
2.55
1.54
0.22
-1.23
-2.59
-3.61
-4.20
-4.39
-4.31
-4.11
-3.89
-3.66
-3.43
-3.18
-2.95
-2.77
-2.61
-2.46
-2.31
-2.18
-2.11
-2.09
-1.99
-1.59
-0.71
0.69
2.44
4.18
5.56
6.33
6.49
6.19
5.67
5.11
4.66
4.39
4.35
4.57
5.04
5.71
6.48
7.24
7.87
8.26
8.38
8.21
7.79
7.18
6.44
5.59
4.63
3.50
2.20
0.74
-0.77
-2.18
-3.35
-4.22
-4.79
-5.19
-5.55
-5.92
-6.31
-6.59
-6.62
-6.30
-5.65
-4.83
-4.06
-3.50
-3.22
-3.12
-3.07
-2.93
-2.70
-2.48
-2.39
-2.49
-2.77
-3.12
-3.42
-3.63
-3.76
-3.89
-4.05
-4.26
-4.44
-4.50
-4.32
-3.85
-3.07
-2.03
-0.82
0.44
1.66
2.80
3.86
4.83
5.69
6.36
6.77
6.86
6.69
6.39
6.11
5.92
5.79
5.59
5.14
4.32
3.13
1.70
0.20
-1.23
-2.47
-3.47
-4.20
-4.68
-4.93
-4.95
-4.79
-4.46
-4.02
-3.51
-3.03
-2.68
-2.51
-2.53
-2.67
-2.83
-2.90
-2.89
-2.86
-2.89
-3.02
-3.21
-3.34
-3.36
-3.28
-3.20
-3.26
-3.51
-3.87
-4.14
-4.13
-3.71
-2.89
-1.74
-0.42
0.97
2.37
3.76
5.10
6.31
7.28
7.91
8.12
7.90
7.30
6.40
5.33
4.19
3.12
2.20
1.43
0.78
0.12
-0.69
-1.72
-2.94
-4.18
-5.18
-5.69
-5.60
-4.96
-4.03
-3.09
-2.37
-1.92
-1.63
-1.36
-1.03
-0.70
-0.52
-0.59
-0.91
-1.34
-1.67
-1.81
-1.78
-1.75
-1.85
-2.12
-2.44
-2.71
-2.86
-2.93
-3.03
-3.24
-3.54
-3.82
-3.98
-3.94
-3.74
-3.45
-3.14
-2.80
-2.36
-1.77
-1.01
-0.19
0.54
1.02
1.15
0.91
0.43
-0.14
-0.61
-0.90
-1.03
-1.09
-1.21
-1.51
-2.02
-2.67
-3.39
-4.08
-4.70
-5.20
-5.48
-5.47
-5.06
-4.19
-2.90
-1.28
0.53
2.38
4.12
5.64
6.82
7.59
7.91
7.84
7.50
7.06
6.67
6.38
6.13
5.86
5.51
5.08
4.59
4.07
3.53
2.94
2.30
1.65
1.05
0.61
0.39
0.47
0.86
1.53
2.42
3.43
4.43
5.30
5.91
6.17
6.04
5.53
4.70
3.67
2.61
1.70
1.04
0.66
0.48
0.38
0.17
-0.25
-0.94
-1.89
-2.98
-4.03
-4.79
-5.04
-4.67
-3.70
-2.30
-0.74
0.72
1.91
2.78
3.38
3.75
3.94
3.97
3.83
3.57
3.22
2.80
2.31
1.72
1.01
0.23
-0.55
-1.27
-1.91
-2.49
-3.08
-3.69
-4.30
-4.78
-5.01
-4.87
-4.34
-3.45
-2.27
-0.89
0.58
2.00
3.20
3.99
4.27
4.02
3.38
2.55
1.75
1.06
0.47
-0.12
-0.77
-1.46
-2.14
-2.72
-3.20
-3.62
-4.08
-4.63
-5.24
-5.77
-6.07
-5.99
-5.47
-4.53
-3.24
-1.70
-0.05
1.58
3.01
4.06
4.60
4.57
4.04
3.17
2.20
1.30
0.60
0.04
-0.52
-1.22
-2.13
-3.21
-4.32
-5.32
-6.14
-6.79
-7.33
-7.79
-8.08
-8.04
-7.50
-6.41
-4.87
-3.11
-1.37
0.19
1.59
2.91
4.20
5.39
6.28
6.65
6.38
5.54
4.37
3.11
1.89
0.69
-0.64
-2.20
-3.97
-5.83
-7.63
-9.30
-10.85
-12.33
-13.75
-14.96
-15.77
-16.01
-15.67
-14.85
-13.78
-12.64
-11.50
-10.34
-9.12
-7.79
-6.38
-4.97
-3.61
-2.30
-1.01
0.29
1.54
2.67
3.50
3.95
4.01
3.84
3.65
3.64
3.90
4.34
4.78
5.05
5.09
4.99
4.94
5.12
5.60
6.34
7.20
8.03
8.74
9.24
9.52
9.53
9.25
8.71
7.95
7.06
6.15
5.30
4.62
4.16
4.00
4.16
4.62
5.25
5.85
6.21
6.20
5.85
5.27
4.67
4.20
3.96
3.91
3.98
4.07
4.12
4.15
4.29
4.63
5.28
6.18
7.17
8.01
8.49
8.49
8.07
7.37
6.53
5.58
4.52
3.28
1.91
0.54
-0.64
-1.48
-1.96
-2.14
-2.17
-2.12
-2.02
-1.84
-1.54
-1.12
-0.61
-0.05
0.46
0.86
1.04
0.93
0.49
-0.27
-1.26
-2.33
-3.33
-4.11
-4.62
-4.86
-4.91
-4.88
-4.93
-5.17
-5.66
-6.37
-7.14
-7.72
-7.89
-7.46
-6.43
-4.93
-3.19
-1.54
-0.19
0.70
1.12
1.16
0.99
0.75
0.56
0.42
0.28
0.07
-0.24
-0.65
-1.09
-1.50
-1.89
-2.29
-2.73
-3.23
-3.73
-4.16
-4.46
-4.56
-4.42
-4.00
-3.26
-2.25
-1.05
0.16
1.21
1.99
2.48
2.72
2.81
2.78
2.63
2.34
1.93
1.41
0.84
0.26
-0.30
-0.85
-1.41
-2.01
-2.64
-3.25
-3.78
-4.14
-4.26
-4.11
-3.70
-3.09
-2.35
-1.56
-0.77
-0.00
0.71
1.35
1.88
2.28
2.53
2.66
2.69
2.64
2.51
2.30
1.98
1.54
0.95
0.23
-0.60
-1.47
-2.30
-2.97
-3.44
-3.70
-3.83
-3.86
-3.80
-3.54
-2.94
-1.91
-0.55
0.93
2.21
3.03
3.33
3.22
2.94
2.68
2.53
2.47
2.40
2.24
1.96
1.61
1.21
0.79
0.34
-0.17
-0.77
-1.50
-2.34
-3.19
-3.91
-4.30
-4.22
-3.65
-2.69
-1.50
-0.27
0.92
2.02
3.04
3.94
4.65
5.02
5.01
4.63
4.00
3.28
2.61
2.04
1.56
1.15
0.77
0.42
0.12
-0.10
-0.26
-0.39
-0.55
-0.77
-1.05
-1.30
-1.39
-1.22
-0.69
0.18
1.30
2.51
3.62
4.50
5.08
5.35
5.32
5.01
4.47
3.74
2.92
2.14
1.48
0.98
0.61
0.29
-0.05
-0.46
-0.95
-1.52
-2.14
-2.81
-3.44
-3.91
-4.07
-3.82
-3.14
-2.16
-1.09
-0.13
0.58
1.02
1.24
1.34
1.39
1.39
1.30
1.04
0.58
-0.09
-0.91
-1.76
-2.55
-3.19
-3.67
-4.04
-4.35
-4.63
-4.90
-5.12
-5.25
-5.21
-4.95
-4.42
-3.60
-2.52
-1.26
0.06
1.28
2.29
2.97
3.29
3.27
2.98
2.54
2.06
1.59
1.19
0.87
0.62
0.42
0.23
-0.05
-0.56
-1.39
-2.59
-4.00
-5.35
-6.30
-6.58
-6.11
-5.02
-3.60
-2.16
-0.94
-0.01
0.73
1.40
2.08
2.77
3.31
3.52
3.31
2.75
2.02
1.36
0.95
0.78
0.75
0.69
0.52
0.22
-0.18
-0.64
-1.20
-1.89
-2.66
-3.38
-3.83
-3.77
-3.08
-1.82
-0.21
1.46
2.90
3.98
4.69
5.11
5.34
5.38
5.18
4.67
3.85
2.85
1.85
1.05
0.50
0.15
-0.14
-0.50
-0.96
-1.51
-2.09
-2.65
-3.13
-3.46
-3.55
-3.31
-2.72
-1.83
-0.78
0.28
1.25
2.06
2.69
3.11
3.31
3.28
3.07
2.73
2.36
2.02
1.70
1.38
0.98
0.48
-0.12
-0.76
-1.40
-2.02
-2.63
-3.23
-3.79
-4.23
-4.40
-4.21
-3.60
-2.63
-1.43
-0.19
0.88
1.65
2.08
2.23
2.22
2.18
2.17
2.16
2.08
1.85
1.47
0.99
0.49
0.03
-0.41
-0.88
-1.44
-2.07
-2.71
-3.27
-3.72
-4.06
-4.33
-4.50
-4.44
-3.98
-3.02
-1.60
0.05
1.61
2.81
3.52
3.77
3.71
3.50
3.22
2.88
2.44
1.93
1.41
0.96
0.61
0.31
-0.04
-0.54
-1.19
-1.92
-2.60
-3.15
-3.51
-3.67
-3.67
-3.47
-3.03
-2.30
-1.27
-0.04
1.26
2.45
3.35
3.86
3.96
3.70
3.17
2.55
1.96
1.51
1.25
1.13
1.07
0.97
0.76
0.39
-0.14
-0.82
-1.66
-2.62
-3.59
-4.42
-4.91
-4.92
-4.39
-3.44
-2.27
-1.10
-0.08
0.77
1.53
2.27
3.01
3.68
4.12
4.18
3.84
3.16
2.31
1.46
0.70
0.06
-0.48
-0.98
-1.42
-1.81
-2.14
-2.46
-2.82
-3.24
-3.67
-3.97
-3.94
-3.46
-2.51
-1.22
0.18
1.44
2.42
3.08
3.50
3.77
3.93
3.96
3.80
3.42
2.84
2.17
1.51
0.94
0.46
0.06
-0.31
-0.66
-1.03
-1.45
-1.92
-2.42
-2.87
-3.17
-3.23
-3.04
-2.62
-2.03
-1.26
-0.27
0.92
2.27
3.60
4.71
5.44
5.72
5.61
5.22
4.65
3.99
3.27
2.54
1.86
1.33
0.98
0.79
0.67
0.44
0.00
-0.70
-1.60
-2.51
-3.22
-3.55
-3.41
-2.89
-2.12
-1.30
-0.50
0.25
1.03
1.86
2.70
3.39
3.76
3.71
3.25
2.50
1.69
0.98
0.44
0.06
-0.21
-0.43
-0.60
-0.76
-0.96
-1.30
-1.87
-2.70
-3.69
-4.61
-5.19
-5.19
-4.58
-3.47
-2.15
-0.86
0.22
1.08
1.80
2.48
3.12
3.66
3.98
3.98
3.66
3.12
2.50
1.94
1.50
1.18
0.92
0.65
0.35
0.03
-0.28
-0.59
-0.94
-1.37
-1.89
-2.47
-2.99
-3.30
-3.30
-2.95
-2.28
-1.35
-0.23
1.00
2.26
3.41
4.27
4.67
4.55
3.95
3.09
2.21
1.54
1.16
1.06
1.10
1.10
0.93
0.54
-0.06
-0.81
-1.61
-2.39
-3.06
-3.56
-3.84
-3.80
-3.38
-2.55
-1.38
-0.04
1.23
2.22
2.83
3.06
3.00
2.78
2.50
2.18
1.81
1.35
0.82
0.28
-0.17
-0.44
-0.48
-0.38
-0.27
-0.35
-0.78
-1.62
-2.78
-4.07
-5.20
-5.92
-6.06
-5.57
-4.52
-3.12
-1.65
-0.35
0.61
1.22
1.58
1.83
2.06
2.24
2.27
2.02
1.43
0.58
-0.39
-1.32
-2.09
-2.68
-3.16
-3.62
-4.15
-4.82
-5.60
-6.41
-7.08
-7.48
-7.51
-7.17
-6.56
-5.78
-4.92
-3.99
-3.01
-2.04
-1.20
-0.64
-0.41
-0.44
-0.59
-0.70
-0.71
-0.66
-0.65
-0.73
-0.83
-0.82
-0.55
0.03
0.84
1.78
2.70
3.50
4.08
4.40
4.49
4.50
4.70
5.29
6.36
7.73
9.07
10.03
10.46
10.44
10.24
10.12
10.17
10.26
10.17
9.79
9.13
8.38
7.76
7.35
7.10
6.79
6.20
5.22
3.92
2.47
1.09
-0.12
-1.20
-2.23
-3.18
-3.89
-4.06
-3.50
-2.24
-0.65
0.73
1.44
1.31
0.55
-0.41
-1.16
-1.51
-1.57
-1.60
-1.79
-2.15
-2.51
-2.69
-2.63
-2.43
-2.32
-2.45
-2.82
-3.30
-3.65
-3.75
-3.63
-3.46
-3.44
-3.64
-3.97
-4.25
-4.27
-3.92
-3.21
-2.24
-1.11
0.04
1.10
2.00
2.67
3.10
3.28
3.22
2.93
2.44
1.82
1.20
0.71
0.43
0.35
0.32
0.17
-0.25
-0.92
-1.72
-2.47
-3.01
-3.29
-3.31
-3.16
-2.90
-2.54
-2.07
-1.49
-0.78
0.02
0.84
1.58
2.12
2.40
2.43
2.28
2.02
1.75
1.48
1.22
0.93
0.60
0.26
-0.06
-0.33
-0.57
-0.83
-1.17
-1.65
-2.27
-2.98
-3.71
-4.33
-4.73
-4.81
-4.50
-3.82
-2.89
-1.86
-0.92
-0.17
0.38
0.81
1.25
1.77
2.36
2.91
3.28
3.31
2.98
2.34
1.53
0.74
0.10
-0.35
-0.63
-0.85
-1.12
-1.51
-2.05
-2.64
-3.17
-3.49
-3.54
-3.28
-2.76
-2.08
-1.32
-0.52
0.29
1.09
1.82
2.41
2.80
2.93
2.84
2.57
2.16
1.62
0.95
0.16
-0.70
-1.57
-2.34
-2.93
-3.29
-3.44
-3.43
-3.36
-3.34
-3.43
-3.60
-3.75
-3.72
-3.43
-2.87
-2.12
-1.30
-0.51
0.25
1.00
1.71
2.31
2.65
2.62
2.22
1.57
0.86
0.28
-0.11
-0.36
-0.56
-0.80
-1.10
-1.42
-1.71
-1.99
-2.31
-2.76
-3.39
-4.13
-4.80
-5.19
-5.08
-4.41
-3.26
-1.85
-0.39
0.95
2.08
2.98
3.62
3.94
3.88
3.51
2.95
2.41
2.05
1.89
1.79
1.55
1.05
0.31
-0.54
-1.32
-1.93
-2.42
-2.86
-3.33
-3.76
-4.05
-4.04
-3.67
-2.98
-2.06
-1.03
0.05
1.16
2.33
3.50
4.57
5.39
5.80
5.74
5.25
4.47
3.57
2.74
2.06
1.57
1.21
0.93
0.63
0.26
-0.21
-0.80
-1.51
-2.28
-3.01
-3.57
-3.84
-3.74
-3.27
-2.51
-1.56
-0.53
0.46
1.34
2.00
2.36
2.34
1.97
1.38
0.78
0.38
0.27
0.40
0.57
0.56
0.21
-0.47
-1.36
-2.26
-3.02
-3.59
-4.05
-4.50
-4.99
-5.51
-5.92
-6.07
-5.82
-5.14
-4.08
-2.78
-1.40
-0.08
1.08
2.04
2.82
3.44
3.90
4.18
4.23
4.00
3.50
2.79
1.94
1.08
0.27
-0.42
-0.99
-1.46
-1.85
-2.18
-2.52
-2.96
-3.57
-4.34
-5.15
-5.77
-5.95
-5.51
-4.42
-2.81
-0.98
0.79
2.23
3.24
3.80
4.02
3.99
3.80
3.50
3.12
2.69
2.21
1.68
1.12
0.51
-0.16
-0.87
-1.63
-2.43
-3.28
-4.15
-5.02
-5.84
-6.52
-6.98
-7.10
-6.80
-6.05
-4.89
-3.46
-1.93
-0.52
0.60
1.32
1.64
1.63
1.45
1.23
1.07
0.99
0.94
0.86
0.68
0.36
-0.08
-0.65
-1.33
-2.15
-3.12
-4.25
-5.51
-6.78
-7.89
-8.68
-8.98
-8.69
-7.82
-6.45
-4.78
-3.03
-1.40
-0.01
1.08
1.92
2.55
3.04
3.34
3.38
3.04
2.25
1.03
-0.51
-2.20
-3.86
-5.35
-6.55
-7.41
-7.91
-8.09
-8.06
-7.95
-7.92
-8.06
-8.33
-8.55
-8.47
-7.87
-6.66
-4.89
-2.76
-0.52
1.64
3.58
5.23
6.56
7.56
8.23
8.57
8.57
8.30
7.82
7.20
6.51
5.81
5.12
4.44
3.69
2.79
1.69
0.41
-0.88
-1.99
-2.70
-2.88
-2.50
-1.65
-0.45
0.99
2.56
4.21
5.82
7.24
8.29
8.81
8.73
8.12
7.18
6.13
5.17
4.41
3.81
3.27
2.71
2.05
1.33
0.59
-0.15
-0.87
-1.61
-2.38
-3.09
-3.58
-3.66
-3.20
-2.17
-0.68
1.06
2.84
4.51
5.95
7.14
8.04
8.61
8.82
8.65
8.10
7.25
6.20
5.06
3.99
3.07
2.35
1.85
1.49
1.15
0.70
0.01
-0.94
-2.04
-3.09
-3.84
-4.12
-3.86
-3.12
-2.02
-0.68
0.81
2.42
4.07
5.62
6.88
7.67
7.90
7.63
7.00
6.16
5.24
4.27
3.27
2.29
1.41
0.72
0.27
0.02
-0.21
-0.61
-1.33
-2.39
-3.60
-4.68
-5.32
-5.31
-4.61
-3.33
-1.68
0.08
1.79
3.35
4.74
5.95
6.96
7.68
8.00
7.82
7.16
6.09
4.80
3.45
2.16
0.99
-0.08
-1.01
-1.77
-2.28
-2.55
-2.66
-2.76
-3.01
-3.45
-3.97
-4.34
-4.30
-3.68
-2.50
-0.93
0.78
2.39
3.74
4.79
5.55
6.03
6.22
6.07
5.56
4.73
3.70
2.64
1.71
1.00
0.50
0.12
-0.28
-0.83
-1.57
-2.48
-3.44
-4.31
-4.93
-5.20
-5.09
-4.63
-3.86
-2.81
-1.48
0.08
1.77
3.42
4.77
5.62
5.85
5.50
4.72
3.75
2.78
1.97
1.44
1.20
1.23
1.41
1.57
1.52
1.10
0.28
-0.87
-2.16
-3.35
-4.18
-4.49
-4.20
-3.38
-2.19
-0.80
0.64
2.06
3.47
4.85
6.14
7.23
7.97
8.32
8.33
8.16
7.97
7.80
7.59
7.19
6.47
5.38
3.93
2.16
0.12
-2.14
-4.54
-6.91
-9.00
-10.58
-11.52
-11.81
-11.56
-10.98
-10.19
-9.25
-8.13
-6.80
-5.25
-3.53
-1.75
-0.03
1.55
2.92
4.06
4.95
5.58
5.96
6.15
6.27
6.45
6.77
7.14
7.37
7.15
6.26
4.66
2.60
0.48
-1.20
-2.10
-2.11
-1.39
-0.26
0.95
2.01
2.84
3.47
3.93
4.27
4.47
4.54
4.45
4.20
3.78
3.17
2.37
1.45
0.48
-0.42
-1.17
-1.80
-2.37
-2.99
-3.71
-4.52
-5.32
-5.98
-6.40
-6.52
-6.32
-5.81
-4.98
-3.84
-2.44
-0.90
0.63
1.94
2.88
3.36
3.40
3.11
2.59
1.98
1.37
0.81
0.34
-0.03
-0.30
-0.48
-0.67
-0.99
-1.56
-2.45
-3.62
-4.93
-6.16
-7.06
-7.41
-7.12
-6.23
-4.94
-3.44
-1.94
-0.59
0.57
1.49
2.15
2.50
2.53
2.26
1.79
1.21
0.65
0.15
-0.29
-0.68
-1.02
-1.33
-1.62
-1.96
-2.43
-3.09
-3.91
-4.76
-5.48
-5.92
-6.00
-5.75
-5.18
-4.32
-3.16
-1.68
0.05
1.86
3.54
4.88
5.72
6.02
5.83
5.25
4.39
3.38
2.36
1.43
0.70
0.20
-0.08
-0.20
-0.28
-0.48
-0.94
-1.72
-2.75
-3.86
-4.81
-5.36
-5.39
-4.87
-3.90
-2.63
-1.25
0.11
1.31
2.28
3.02
3.56
3.94
4.19
4.28
4.18
3.87
3.37
2.75
2.10
1.51
0.98
0.51
0.07
-0.38
-0.90
-1.53
-2.32
-3.23
-4.14
-4.88
-5.27
-5.20
-4.64
-3.69
-2.44
-1.01
0.46
1.85
2.98
3.70
3.93
3.68
3.08
2.38
1.80
1.46
1.37
1.42
1.43
1.24
0.77
0.03
-0.90
-1.90
-2.86
-3.69
-4.33
-4.75
-4.91
-4.78
-4.34
-3.65
-2.78
-1.86
-0.96
-0.09
0.82
1.78
2.76
3.63
4.23
4.42
4.17
3.56
2.73
1.83
0.99
0.30
-0.19
-0.47
-0.57
-0.61
-0.70
-0.96
-1.46
-2.16
-2.99
-3.85
-4.57
-5.01
-5.01
-4.44
-3.32
-1.79
-0.07
1.56
2.92
3.90
4.49
4.72
4.61
4.20
3.56
2.84
2.18
1.68
1.34
1.05
0.68
0.18
-0.43
-1.05
-1.60
-2.09
-2.58
-3.13
-3.74
-4.25
-4.47
-4.23
-3.51
-2.43
-1.20
0.00
1.07
1.98
2.76
3.41
3.89
4.16
4.18
3.98
3.62
3.15
2.59
1.97
1.29
0.62
0.03
-0.42
-0.74
-1.03
-1.37
-1.85
-2.45
-3.07
-3.62
-4.00
-4.21
-4.26
-4.16
-3.85
-3.27
-2.35
-1.13
0.25
1.61
2.72
3.45
3.76
3.71
3.39
2.95
2.45
1.98
1.56
1.20
0.93
0.71
0.57
0.47
0.39
0.33
0.22
0.03
-0.34
-0.94
-1.77
-2.75
-3.65
-4.25
-4.32
-3.80
-2.77
-1.44
-0.07
1.11
2.00
2.59
2.93
3.12
3.24
3.32
3.34
3.27
3.03
2.59
1.96
1.23
0.53
-0.06
-0.49
-0.81
-1.10
-1.42
-1.81
-2.27
-2.75
-3.24
-3.71
-4.13
-4.42
-4.51
-4.29
-3.71
-2.80
-1.63
-0.35
0.87
1.88
2.59
2.98
3.09
3.02
2.86
2.65
2.39
2.07
1.65
1.11
0.49
-0.14
-0.72
-1.19
-1.52
-1.76
-1.99
-2.32
-2.80
-3.43
-4.10
-4.65
-4.94
-4.89
-4.50
-3.78
-2.80
-1.60
-0.26
1.06
2.17
2.92
3.20
3.09
2.77
2.42
2.18
2.05
1.93
1.71
1.35
0.89
0.42
0.02
-0.31
-0.64
-1.06
-1.61
-2.25
-2.90
-3.45
-3.84
-4.01
-3.97
-3.67
-3.09
-2.19
-1.03
0.26
1.48
2.43
3.03
3.29
3.34
3.28
3.18
3.00
2.68
2.22
1.65
1.12
0.72
0.46
0.29
0.07
-0.29
-0.82
-1.50
-2.23
-2.93
-3.51
-3.86
-3.91
-3.60
-2.90
-1.89
-0.71
0.47
1.51
2.33
2.93
3.35
3.64
3.81
3.85
3.75
3.49
3.11
2.61
1.99
1.23
0.35
-0.60
-1.48
-2.15
-2.51
-2.60
-2.56
-2.57
-2.73
-3.01
-3.25
-3.28
-2.99
-2.35
-1.43
-0.35
0.77
1.83
2.73
3.40
3.80
3.93
3.83
3.58
3.26
2.89
2.48
2.02
1.52
0.99
0.48
0.02
-0.32
-0.55
-0.67
-0.73
-0.77
-0.82
-0.89
-0.96
-1.02
-1.04
-1.04
-1.01
-0.96
-0.86
-0.71
-0.48
-0.17
0.18
0.53
0.85
1.12
1.35
1.54
1.67
1.68
1.53
1.20
0.73
0.23
-0.18
-0.41
-0.50
-0.58
-0.78
-1.23
-1.89
-2.66
-3.36
-3.82
-3.97
-3.81
-3.39
-2.78
-2.04
-1.23
-0.46
0.14
0.52
0.65
0.59
0.46
0.32
0.15
-0.11
-0.52
-1.09
-1.68
-2.16
-2.43
-2.49
-2.48
-2.54
-2.78
-3.20
-3.71
-4.18
-4.50
-4.60
-4.47
-4.16
-3.70
-3.15
-2.51
-1.80
-0.96
0.02
1.13
2.28
3.32
4.09
4.45
4.40
3.99
3.38
2.77
2.33
2.15
2.22
2.44
2.66
2.75
2.65
2.38
2.00
1.54
1.01
0.39
-0.28
-0.90
-1.32
-1.42
-1.16
-0.61
0.11
0.90
1.66
2.34
2.85
3.09
3.01
2.61
2.02
1.42
0.97
0.71
0.57
0.44
0.21
-0.13
-0.52
-0.87
-1.13
-1.30
-1.45
-1.63
-1.87
-2.15
-2.42
-2.60
-2.60
-2.36
-1.84
-1.08
-0.17
0.76
1.56
2.13
2.43
2.45
2.21
1.77
1.21
0.60
0.00
-0.54
-1.01
-1.44
-1.85
-2.26
-2.66
-3.03
-3.36
-3.69
-4.08
-4.58
-5.17
-5.76
-6.16
-6.21
-5.82
-5.02
-3.99
-2.92
-1.98
-1.26
-0.75
-0.39
-0.15
-0.01
0.02
-0.06
-0.22
-0.37
-0.44
-0.35
-0.09
0.29
0.69
1.00
1.16
1.15
1.00
0.76
0.48
0.21
0.00
-0.08
0.00
0.27
0.70
1.24
1.85
2.53
3.31
4.21
5.16
6.01
6.49
6.38
5.62
4.31
2.77
1.29
0.11
-0.73
-1.31
-1.77
-2.18
-2.57
-2.90
-3.15
-3.33
-3.48
-3.65
-3.87
-4.11
-4.27
-4.23
-3.85
-3.00
-1.70
-0.06
1.69
3.29
4.55
5.36
5.76
5.80
5.57
5.12
4.51
3.82
3.12
2.51
2.00
1.56
1.11
0.58
-0.06
-0.82
-1.68
-2.60
-3.54
-4.42
-5.11
-5.48
-5.45
-5.02
-4.29
-3.39
-2.46
-1.59
-0.84
-0.22
0.23
0.53
0.71
0.84
0.98
1.11
1.18
1.12
0.90
0.52
0.07
-0.37
-0.74
-1.03
-1.30
-1.57
-1.88
-2.22
-2.55
-2.82
-2.94
-2.83
-2.43
-1.72
-0.76
0.36
1.52
2.64
3.60
4.35
4.82
4.97
4.79
4.31
3.59
2.74
1.88
1.14
0.60
0.31
0.23
0.27
0.25
0.01
-0.55
-1.41
-2.39
-3.24
-3.69
-3.58
-2.93
-1.89
-0.68
0.46
1.44
2.22
2.84
3.31
3.63
3.74
3.62
3.25
2.73
2.16
1.65
1.27
0.99
0.74
0.41
-0.05
-0.65
-1.35
-2.08
-2.75
-3.30
-3.68
-3.86
-3.82
-3.58
-3.18
-2.66
-2.03
-1.29
-0.43
0.52
1.46
2.25
2.78
3.01
2.97
2.77
2.47
2.09
1.64
1.14
0.61
0.13
-0.26
-0.57
-0.83
-1.11
-1.42
-1.80
-2.25
-2.77
-3.33
-3.81
-4.04
-3.80
-2.98
-1.62
0.04
1.67
2.98
3.81
4.19
4.22
4.01
3.63
3.11
2.49
1.86
1.33
0.98
0.81
0.74
0.67
0.51
0.23
-0.16
-0.62
-1.15
-1.70
-2.24
-2.67
-2.89
-2.82
-2.46
-1.82
-0.98
-0.03
0.93
1.83
2.58
3.15
3.54
3.75
3.79
3.67
3.37
2.89
2.24
1.50
0.78
0.19
-0.24
-0.50
-0.68
-0.89
-1.22
-1.70
-2.28
-2.84
-3.21
-3.29
-3.02
-2.47
-1.76
-1.05
-0.40
0.18
0.75
1.36
1.98
2.52
2.88
2.96
2.75
2.32
1.80
1.31
0.94
0.67
0.43
0.15
-0.25
-0.78
-1.39
-2.03
-2.64
-3.17
-3.57
-3.77
-3.70
-3.33
-2.68
-1.88
-1.06
-0.33
0.30
0.90
1.55
2.26
2.93
3.37
3.43
3.08
2.44
1.74
1.18
0.90
0.88
1.00
1.08
0.98
0.59
-0.07
-0.92
-1.82
-2.63
-3.19
-3.41
-3.27
-2.77
-1.98
-0.98
0.11
1.17
2.09
2.78
3.20
3.36
3.34
3.20
3.01
2.81
2.60
2.39
2.14
1.85
1.46
0.98
0.41
-0.16
-0.66
-1.01
-1.20
-1.25
-1.23
-1.19
-1.08
-0.84
-0.38
0.30
1.15
2.05
2.89
3.61
4.20
4.65
4.89
4.84
4.45
3.74
2.86
2.00
1.32
0.86
0.54
0.21
-0.24
-0.84
-1.53
-2.23
-2.85
-3.40
-3.86
-4.20
-4.35
-4.19
-3.62
-2.64
-1.36
-0.00
1.22
2.15
2.71
2.97
3.02
3.00
2.94
2.84
2.65
2.32
1.83
1.21
0.56
-0.03
-0.50
-0.85
-1.16
-1.51
-1.98
-2.57
-3.17
-3.66
-3.93
-3.92
-3.64
-3.17
-2.54
-1.81
-1.01
-0.18
0.58
1.20
1.61
1.80
1.81
1.69
1.49
1.23
0.94
0.68
0.48
0.34
0.22
0.09
-0.11
-0.40
-0.75
-1.16
-1.61
-2.08
-2.53
-2.91
-3.09
-3.04
-2.74
-2.26
-1.69
-1.11
-0.53
0.10
0.80
1.56
2.30
2.90
3.23
3.19
2.77
2.03
1.10
0.16
-0.61
-1.10
-1.28
-1.23
-1.09
-1.02
-1.12
-1.42
-1.88
-2.42
-2.91
-3.24
-3.31
-3.07
-2.50
-1.65
-0.61
0.47
1.46
2.23
2.72
2.93
2.93
2.82
2.65
2.43
2.15
1.79
1.36
0.89
0.45
0.08
-0.19
-0.37
-0.51
-0.65
-0.82
-1.07
-1.44
-1.95
-2.53
-3.06
-3.35
-3.25
-2.64
-1.59
-0.27
1.04
2.05
2.64
2.77
2.58
2.25
1.93
1.71
1.59
1.54
1.53
1.51
1.46
1.33
1.05
0.54
-0.19
-1.06
-1.94
-2.65
-3.08
-3.20
-3.07
-2.78
-2.45
-2.08
-1.64
-1.05
-0.27
0.67
1.66
2.60
3.36
3.90
4.17
4.16
3.86
3.32
2.61
1.85
1.18
0.69
0.37
0.15
-0.11
-0.51
-1.08
-1.77
-2.47
-3.08
-3.50
-3.69
-3.66
-3.44
-3.03
-2.46
-1.74
-0.89
0.02
0.90
1.67
2.29
2.77
3.13
3.39
3.51
3.43
3.08
2.44
1.59
0.67
-0.17
-0.82
-1.25
-1.51
-1.66
-1.76
-1.87
-2.00
-2.16
-2.34
-2.49
-2.57
-2.53
-2.33
-1.96
-1.43
-0.75
0.05
0.90
1.73
2.41
2.83
2.96
2.81
2.48
2.07
1.69
1.37
1.12
0.92
0.72
0.53
0.35
0.18
0.02
-0.21
-0.61
-1.24
-2.09
-2.99
-3.72
-4.02
-3.78
-3.00
-1.85
-0.56
0.66
1.70
2.54
3.21
3.70
3.98
4.02
3.80
3.38
2.88
2.42
2.03
1.70
1.35
0.93
0.47
0.08
-0.17
-0.28
-0.40
-0.72
-1.35
-2.26
-3.24
-3.99
-4.27
-3.97
-3.16
-2.01
-0.74
0.47
1.48
2.21
2.65
2.81
2.77
2.60
2.36
2.11
1.87
1.66
1.48
1.28
1.02
0.63
0.11
-0.49
-1.10
-1.62
-2.03
-2.34
-2.62
-2.91
-3.21
-3.43
-3.47
-3.24
-2.74
-2.03
-1.17
-0.26
0.69
1.65
2.58
3.41
4.02
4.29
4.13
3.57
2.71
1.76
0.92
0.32
-0.03
-0.25
-0.49
-0.89
-1.46
-2.17
-2.88
-3.50
-3.99
-4.36
-4.61
-4.70
-4.56
-4.11
-3.36
-2.37
-1.27
-0.20
0.75
1.50
2.01
2.28
2.30
2.15
1.91
1.71
1.60
1.53
1.39
1.04
0.44
-0.35
-1.16
-1.87
-2.37
-2.71
-2.95
-3.20
-3.46
-3.74
-3.99
-4.16
-4.21
-4.02
-3.50
-2.59
-1.31
0.17
1.59
2.71
3.39
3.63
3.53
3.24
2.83
2.37
1.85
1.31
0.81
0.40
0.12
-0.07
-0.24
-0.48
-0.84
-1.29
-1.77
-2.19
-2.48
-2.61
-2.57
-2.36
-1.96
-1.33
-0.48
0.54
1.63
2.61
3.35
3.79
3.96
3.95
3.87
3.77
3.65
3.47
3.18
2.74
2.19
1.58
1.01
0.53
0.13
-0.24
-0.66
-1.16
-1.71
-2.20
-2.55
-2.72
-2.76
-2.73
-2.68
-2.55
-2.23
-1.58
-0.59
0.62
1.85
2.91
3.68
4.12
4.27
4.15
3.79
3.19
2.45
1.70
1.11
0.80
0.76
0.83
0.77
0.40
-0.34
-1.34
-2.40
-3.31
-3.94
-4.26
-4.29
-4.10
-3.69
-3.04
-2.13
-0.97
0.34
1.62
2.69
3.39
3.65
3.54
3.19
2.76
2.38
2.06
1.73
1.29
0.70
0.00
-0.66
-1.15
-1.41
-1.49
-1.55
-1.76
-2.20
-2.82
-3.47
-3.97
-4.18
-4.07
-3.66
-3.01
-2.20
-1.26
-0.23
0.85
1.93
2.92
3.72
4.23
4.39
4.23
3.85
3.38
2.90
2.43
1.91
1.29
0.55
-0.21
-0.87
-1.36
-1.69
-1.96
-2.29
-2.78
-3.39
-4.01
-4.48
-4.66
-4.44
-3.78
-2.72
-1.36
0.12
1.54
2.73
3.63
4.22
4.55
4.66
4.56
4.21
3.62
2.81
1.89
0.99
0.24
-0.31
-0.66
-0.88
-1.02
-1.15
-1.33
-1.60
-2.02
-2.60
-3.28
-3.88
-4.21
-4.07
-3.40
-2.28
-0.93
0.40
1.50
2.30
2.83
3.17
3.39
3.48
3.42
3.18
2.77
2.22
1.62
1.02
0.50
0.08
-0.24
-0.45
-0.63
-0.86
-1.23
-1.78
-2.44
-3.09
-3.54
-3.68
-3.47
-3.01
-2.39
-1.69
-0.93
-0.11
0.79
1.69
2.45
2.91
2.99
2.71
2.19
1.64
1.21
1.01
0.99
1.06
1.07
0.90
0.52
-0.06
-0.77
-1.50
-2.20
-2.83
-3.38
-3.82
-4.09
-4.12
-3.87
-3.34
-2.62
-1.82
-1.04
-0.32
0.35
0.96
1.49
1.86
2.00
1.91
1.66
1.37
1.15
1.01
0.89
0.72
0.43
0.01
-0.48
-0.98
-1.43
-1.81
-2.10
-2.35
-2.59
-2.82
-3.02
-3.07
-2.86
-2.30
-1.42
-0.34
0.76
1.69
2.38
2.81
3.04
3.12
3.05
2.82
2.41
1.86
1.25
0.67
0.20
-0.17
-0.50
-0.89
-1.40
-2.04
-2.74
-3.38
-3.86
-4.13
-4.16
-3.96
-3.54
-2.84
-1.86
-0.62
0.75
2.08
3.14
3.79
4.00
3.83
3.45
3.03
2.68
2.42
2.17
1.83
1.35
0.73
0.08
-0.52
-1.00
-1.36
-1.67
-1.99
-2.38
-2.86
-3.36
-3.76
-3.89
-3.58
-2.75
-1.45
0.13
1.70
2.98
3.83
4.30
4.51
4.61
4.67
4.66
4.49
4.12
3.55
2.83
2.01
1.16
0.35
-0.35
-0.88
-1.20
-1.37
-1.52
-1.83
-2.42
-3.26
-4.14
-4.75
-4.81
-4.18
-2.95
-1.40
0.15
1.45
2.41
3.05
3.52
3.92
4.28
4.52
4.56
4.31
3.79
3.13
2.49
2.00
1.67
1.43
1.13
0.67
0.04
-0.68
-1.40
-2.07
-2.68
-3.25
-3.72
-3.92
-3.70
-2.94
-1.73
-0.27
1.18
2.44
3.43
4.18
4.70
4.95
4.86
4.39
3.61
2.72
1.97
1.50
1.33
1.31
1.25
0.96
0.39
-0.44
-1.42
-2.41
-3.31
-4.06
-4.62
-4.98
-5.09
-4.89
-4.29
-3.28
-1.93
-0.44
0.97
2.09
2.86
3.31
3.54
3.62
3.55
3.26
2.75
2.06
1.34
0.72
0.28
-0.02
-0.28
-0.62
-1.06
-1.57
-2.09
-2.61
-3.11
-3.61
-4.08
-4.41
-4.43
-3.99
-3.04
-1.65
-0.02
1.57
2.91
3.84
4.32
4.37
4.07
3.54
2.86
2.14
1.45
0.85
0.33
-0.11
-0.51
-0.91
-1.29
-1.66
-1.99
-2.32
-2.69
-3.11
-3.58
-3.96
-4.07
-3.71
-2.79
-1.38
0.28
1.87
3.13
3.98
4.49
4.80
4.98
5.02
4.80
4.26
3.47
2.59
1.84
1.35
1.11
0.97
0.79
0.46
-0.02
-0.62
-1.32
-2.06
-2.81
-3.48
-3.97
-4.13
-3.88
-3.18
-2.09
-0.75
0.64
1.87
2.80
3.36
3.59
3.60
3.50
3.34
3.13
2.81
2.33
1.69
0.93
0.16
-0.54
-1.11
-1.54
-1.87
-2.11
-2.29
-2.45
-2.61
-2.82
-3.10
-3.42
-3.68
-3.70
-3.29
-2.38
-1.04
0.55
2.10
3.37
4.21
4.59
4.54
4.14
3.47
2.66
1.84
1.13
0.62
0.29
0.06
-0.21
-0.59
-1.12
-1.76
-2.45
-3.18
-3.95
-4.71
-5.40
-5.83
-5.83
-5.30
-4.26
-2.85
-1.32
0.13
1.37
2.38
3.17
3.76
4.13
4.22
4.01
3.53
2.88
2.18
1.57
1.08
0.69
0.30
-0.17
-0.78
-1.52
-2.32
-3.10
-3.81
-4.42
-4.88
-5.14
-5.11
-4.67
-3.75
-2.40
-0.77
0.90
2.39
3.53
4.28
4.69
4.85
4.82
4.61
4.21
3.62
2.88
2.07
1.29
0.58
-0.02
-0.53
-0.95
-1.31
-1.64
-2.00
-2.44
-2.97
-3.53
-3.99
-4.17
-3.95
-3.30
-2.28
-1.05
0.24
1.48
2.60
3.56
4.33
4.84
5.01
4.77
4.14
3.20
2.12
1.09
0.29
-0.21
-0.42
-0.45
-0.47
-0.64
-1.08
-1.77
-2.62
-3.44
-4.02
-4.20
-3.94
-3.29
-2.39
-1.37
-0.32
0.72
1.73
2.64
3.34
3.76
3.88
3.76
3.52
3.24
2.96
2.61
2.15
1.54
0.83
0.13
-0.47
-0.92
-1.28
-1.67
-2.15
-2.77
-3.47
-4.15
-4.68
-4.91
-4.70
-4.00
-2.86
-1.45
-0.01
1.25
2.23
2.92
3.37
3.62
3.66
3.46
3.03
2.42
1.77
1.20
0.78
0.46
0.18
-0.17
-0.59
-1.08
-1.61
-2.16
-2.74
-3.35
-3.96
-4.50
-4.81
-4.77
-4.28
-3.36
-2.13
-0.79
0.44
1.45
2.21
2.81
3.29
3.64
3.80
3.67
3.22
2.50
1.67
0.88
0.22
-0.31
-0.75
-1.15
-1.50
-1.78
-1.96
-2.10
-2.26
-2.54
-2.95
-3.40
-3.71
-3.69
-3.19
-2.19
-0.86
0.56
1.78
2.61
3.00
3.04
2.89
2.70
2.52
2.28
1.90
1.34
0.65
-0.04
-0.60
-0.96
-1.18
-1.36
-1.61
-2.00
-2.47
-2.97
-3.40
-3.71
-3.84
-3.75
-3.39
-2.68
-1.57
-0.05
1.83
3.92
6.03
7.97
9.59
10.84
11.72
12.31
12.65
12.77
12.68
12.37
11.90
11.34
10.72
10.06
9.28
8.31
7.16
5.89
4.67
3.64
2.87
2.35
1.99
1.70
1.45
1.27
1.15
1.03
0.80
0.36
-0.33
-1.21
-2.15
-3.04
-3.82
-4.47
-5.01
-5.42
-5.71
-5.86
-5.92
-5.99
-6.19
-6.59
-7.20
-7.96
-8.75
-9.46
-9.98
-10.24
-10.18
-9.77
-8.99
-7.76
-6.01
-3.69
-0.82
2.43
5.76
8.89
11.61
13.89
15.78
17.38
18.72
19.77
20.49
20.87
20.89
20.50
19.60
18.04
15.80
13.12
10.47
8.42
7.34
7.27
7.85
8.57
9.00
8.93
8.38
7.42
6.10
4.39
2.28
-0.09
-2.42
-4.28
-5.35
-5.54
-5.03
-4.24
-3.60
-3.41
-3.70
-4.29
-4.86
-5.12
-4.96
-4.46
-3.85
-3.41
-3.34
-3.70
-4.44
-5.41
-6.44
-7.39
-8.17
-8.72
-9.03
-9.16
-9.20
-9.23
-9.30
-9.39
-9.44
-9.40
-9.28
-9.09
-8.88
-8.63
-8.30
-7.80
-7.08
-6.14
-5.05
-3.88
-2.76
-1.75
-0.91
-0.26
0.17
0.36
0.30
0.01
-0.44
-0.94
-1.41
-1.82
-2.23
-2.74
-3.42
-4.25
-5.11
-5.86
-6.39
-6.72
-7.00
-7.40
-8.04
-8.90
-9.84
-10.66
-11.21
-11.44
-11.40
-11.20
-10.96
-10.76
-10.62
-10.59
-10.70
-11.03
-11.63
-12.48
-13.45
-14.28
-14.63
-14.25
-13.07
-11.24
-9.09
-7.02
-5.33
-4.17
-3.52
-3.24
-3.18
-3.22
-3.22
-3.11
-2.85
-2.41
-1.86
-1.33
-0.94
-0.83
-1.06
-1.61
-2.37
-3.16
-3.81
-4.15
-4.12
-3.70
-2.96
-2.03
-1.05
-0.14
0.63
1.21
1.63
1.94
2.21
2.49
2.77
3.03
3.19
3.23
3.11
2.83
2.44
2.04
1.72
1.57
1.61
1.76
1.91
1.96
1.91
1.90
2.12
2.77
3.90
5.43
7.18
8.94
10.54
11.85
12.82
13.42
13.74
13.99
14.47
15.41
16.86
18.54
19.93
20.38
19.40
16.80
12.77
7.78
2.41
-2.77
-7.39
-11.23
-14.27
-16.61
-18.41
-19.80
-20.85
-21.52
-21.70
-21.32
-20.36
-18.87
-16.95
-14.74
-12.38
-10.07
-8.05
-6.49
-5.50
-5.01
-4.80
-4.63
-4.33
-3.88
-3.41
-3.07
-2.96
-3.07
-3.30
-3.52
-3.64
-3.61
-3.35
-2.78
-1.79
-0.32
1.59
3.76
5.96
7.90
9.41
10.40
10.94
11.14
11.14
11.05
10.96
10.98
11.19
11.66
12.39
13.29
14.18
14.83
15.07
14.85
14.22
13.32
12.29
11.23
10.16
9.07
7.98
6.94
6.02
5.29
4.77
4.41
4.13
3.83
3.44
2.92
2.26
1.44
0.46
-0.68
-1.96
-3.33
-4.71
-6.01
-7.15
-8.13
-8.98
-9.80
-10.72
-11.77
-12.86
-13.76
-14.14
-13.68
-12.20
-9.72
-6.44
-2.67
1.28
5.16
8.78
11.98
14.55
16.35
17.31
17.51
17.20
16.65
16.07
15.50
14.84
13.92
12.68
11.18
9.56
7.98
6.52
5.26
4.33
3.99
4.43
5.66
7.31
8.79
9.46
9.00
7.52
5.40
3.11
0.94
-1.05
-2.89
-4.57
-5.96
-6.89
-7.31
-7.33
-7.15
-7.01
-7.06
-7.38
-8.03
-9.03
-10.38
-11.94
-13.45
-14.57
-15.04
-14.75
-13.76
-12.27
-10.47
-8.49
-6.38
-4.18
-1.96
0.13
1.90
3.23
4.07
4.50
4.65
4.67
4.63
4.52
4.34
4.07
3.77
3.49
3.22
2.88
2.35
1.57
0.62
-0.27
-0.81
-0.78
-0.15
0.94
2.19
3.37
4.31
4.98
5.37
5.48
5.27
4.68
3.72
2.49
1.15
-0.17
-1.36
-2.43
-3.38
-4.22
-4.93
-5.51
-5.97
-6.34
-6.68
-6.98
-7.15
-7.08
-6.69
-5.98
-5.05
-4.08
-3.20
-2.49
-1.91
-1.35
-0.73
-0.03
0.67
1.21
1.48
1.43
1.16
0.79
0.49
0.29
0.16
0.01
-0.31
-0.88
-1.68
-2.63
-3.58
-4.38
-4.89
-5.05
-4.82
-4.22
-3.25
-2.00
-0.56
0.91
2.26
3.34
4.08
4.47
4.55
4.36
3.97
3.43
2.79
2.17
1.62
1.20
0.88
0.56
0.17
-0.34
-0.93
-1.55
-2.11
-2.53
-2.75
-2.72
-2.42
-1.86
-1.07
-0.15
0.77
1.62
2.34
2.90
3.28
3.43
3.32
2.94
2.36
1.67
1.04
0.57
0.30
0.20
0.15
0.01
-0.32
-0.89
-1.64
-2.42
-3.02
-3.25
-3.00
-2.34
-1.44
-0.56
0.14
0.64
1.03
1.43
1.88
2.31
2.58
2.58
2.27
1.77
1.24
0.79
0.43
0.08
-0.41
-1.09
-1.90
-2.73
-3.44
-3.93
-4.19
-4.27
-4.20
-4.04
-3.78
-3.40
-2.88
-2.19
-1.33
-0.34
0.68
1.58
2.19
2.39
2.17
1.61
0.90
0.22
-0.29
-0.59
-0.75
-0.86
-1.00
-1.23
-1.53
-1.87
-2.23
-2.60
-2.94
-3.17
-3.18
-2.89
-2.24
-1.29
-0.16
0.94
1.80
2.26
2.30
2.01
1.56
1.14
0.89
0.86
1.02
1.29
1.58
1.81
1.89
1.77
1.43
0.93
0.40
-0.00
-0.11
0.10
0.59
1.20
1.84
2.44
2.99
3.51
3.94
4.23
4.35
4.33
4.24
4.16
4.11
4.03
3.83
3.48
3.00
2.54
2.20
2.06
2.08
2.11
2.00
1.64
1.05
0.38
-0.18
-0.48
-0.46
-0.21
0.15
0.48
0.73
0.91
1.05
1.12
1.02
0.66
0.04
-0.73
-1.42
-1.84
-1.90
-1.71
-1.46
-1.33
-1.42
-1.73
-2.19
-2.73
-3.32
-3.92
-4.49
-4.92
-5.07
-4.84
-4.23
-3.35
-2.35
-1.42
-0.65
-0.08
0.32
0.59
0.75
0.80
0.72
0.46
0.04
-0.53
-1.16
-1.77
-2.27
-2.64
-2.89
-3.11
-3.37
-3.73
-4.16
-4.60
-4.94
-5.09
-5.01
-4.70
-4.18
-3.54
-2.82
-2.13
-1.53
-1.09
-0.80
-0.62
-0.49
-0.33
-0.12
0.09
0.22
0.19
-0.01
-0.28
-0.47
-0.47
-0.27
-0.00
0.12
-0.06
-0.53
-1.07
-1.42
-1.35
-0.87
-0.16
0.50
0.90
1.03
1.02
1.07
1.31
1.72
2.20
2.62
2.90
3.03
3.03
2.91
2.66
2.30
1.88
1.53
1.36
1.37
1.44
1.38
1.00
0.27
-0.67
-1.55
-2.11
-2.22
-1.92
-1.36
-0.68
0.04
0.81
1.64
2.51
3.34
3.98
4.33
4.33
4.05
3.64
3.25
3.01
2.96
3.04
3.10
3.02
2.67
2.03
1.14
0.13
-0.88
-1.77
-2.46
-2.93
-3.15
-3.13
-2.84
-2.32
-1.59
-0.76
0.06
0.71
1.08
1.11
0.84
0.41
-0.01
-0.30
-0.41
-0.43
-0.46
-0.64
-1.01
-1.56
-2.18
-2.79
-3.27
-3.55
-3.60
-3.41
-3.02
-2.51
-1.95
-1.42
-0.93
-0.49
-0.07
0.33
0.72
1.10
1.48
1.87
2.24
2.52
2.61
2.47
2.08
1.55
1.00
0.51
0.08
-0.35
-0.85
-1.46
-2.16
-2.86
-3.43
-3.77
-3.79
-3.45
-2.80
-1.95
-1.05
-0.25
0.38
0.85
1.27
1.69
2.12
2.49
2.70
2.69
2.52
2.25
1.93
1.57
1.10
0.51
-0.18
-0.86
-1.44
-1.87
-2.19
-2.51
-2.88
-3.28
-3.60
-3.67
-3.37
-2.66
-1.60
-0.37
0.83
1.84
2.59
3.10
3.46
3.70
3.86
3.89
3.75
3.49
3.21
3.01
2.95
3.00
3.01
2.88
2.56
2.09
1.58
1.08
0.62
0.15
-0.35
-0.81
-1.12
-1.11
-0.71
0.05
1.04
2.09
3.05
3.85
4.49
4.95
5.22
5.25
4.99
4.47
3.78
3.06
2.44
2.01
1.78
1.67
1.53
1.24
0.68
-0.15
-1.16
-2.20
-3.12
-3.79
-4.15
-4.23
-4.08
-3.76
-3.35
-2.84
-2.24
-1.55
-0.80
-0.04
0.62
1.10
1.31
1.24
0.96
0.60
0.32
0.20
0.19
0.18
-0.02
-0.49
-1.19
-1.98
-2.66
-3.13
-3.39
-3.53
-3.66
-3.83
-3.96
-3.92
-3.61
-2.96
-2.00
-0.85
0.35
1.44
2.33
2.95
3.30
3.41
3.33
3.12
2.80
2.39
1.92
1.41
0.92
0.49
0.12
-0.23
-0.67
-1.28
-2.08
-2.96
-3.73
-4.19
-4.19
-3.71
-2.88
-1.87
-0.83
0.13
0.95
1.65
2.20
2.58
2.78
2.78
2.61
2.27
1.76
1.12
0.40
-0.26
-0.74
-0.97
-1.00
-0.99
-1.13
-1.52
-2.14
-2.84
-3.41
-3.69
-3.63
-3.26
-2.65
-1.85
-0.93
0.08
1.09
2.02
2.79
3.36
3.74
3.97
4.08
4.05
3.89
3.59
3.19
2.77
2.38
2.02
1.65
1.17
0.53
-0.27
-1.14
-1.95
-2.60
-3.05
-3.30
-3.35
-3.21
-2.82
-2.14
-1.16
0.01
1.22
2.27
3.06
3.57
3.86
3.99
3.99
3.84
3.50
2.96
2.30
1.60
0.98
0.44
-0.01
-0.44
-0.91
-1.44
-2.00
-2.60
-3.21
-3.82
-4.39
-4.83
-5.03
-4.85
-4.21
-3.11
-1.68
-0.16
1.20
2.19
2.77
3.02
3.13
3.24
3.44
3.62
3.63
3.34
2.72
1.87
0.99
0.28
-0.13
-0.24
-0.18
-0.18
-0.44
-1.08
-2.02
-3.03
-3.81
-4.08
-3.75
-2.91
-1.79
-0.61
0.51
1.56
2.57
3.48
4.19
4.53
4.45
4.01
3.38
2.77
2.30
1.98
1.72
1.41
0.96
0.40
-0.21
-0.78
-1.30
-1.79
-2.34
-2.98
-3.72
-4.44
-4.97
-5.16
-4.91
-4.25
-3.30
-2.19
-1.06
0.03
1.05
1.96
2.71
3.22
3.44
3.38
3.11
2.77
2.47
2.25
2.07
1.85
1.49
0.97
0.29
-0.44
-1.14
-1.74
-2.25
-2.72
-3.14
-3.44
-3.52
-3.23
-2.55
-1.54
-0.36
0.78
1.73
2.44
2.96
3.39
3.83
4.28
4.70
4.96
4.98
4.71
4.19
3.54
2.85
2.21
1.62
1.06
0.49
-0.09
-0.64
-1.14
-1.63
-2.14
-2.71
-3.28
-3.69
-3.71
-3.18
-2.06
-0.54
1.09
2.51
3.52
4.08
4.30
4.32
4.26
4.14
3.93
3.56
3.07
2.53
2.08
1.78
1.63
1.51
1.28
0.82
0.10
-0.78
-1.67
-2.45
-2.99
-3.24
-3.16
-2.72
-1.93
-0.84
0.44
1.76
2.93
3.85
4.50
4.94
5.22
5.39
5.39
5.15
4.61
3.76
2.69
1.53
0.41
-0.56
-1.32
-1.82
-2.11
-2.27
-2.41
-2.71
-3.24
-3.99
-4.81
-5.48
-5.81
-5.71
-5.19
-4.33
-3.24
-2.01
-0.73
0.51
1.59
2.41
2.92
3.12
3.07
2.85
2.52
2.10
1.62
1.12
0.63
0.17
-0.27
-0.71
-1.20
-1.75
-2.39
-3.12
-3.92
-4.73
-5.45
-5.98
-6.19
-6.01
-5.42
-4.44
-3.20
-1.83
-0.46
0.79
1.81
2.54
2.97
3.08
2.88
2.46
1.89
1.30
0.79
0.44
0.20
0.02
-0.18
-0.46
-0.84
-1.35
-2.00
-2.80
-3.68
-4.51
-5.10
-5.25
-4.86
-3.97
-2.74
-1.36
-0.06
1.07
1.99
2.72
3.26
3.60
3.69
3.47
2.97
2.23
1.39
0.60
-0.03
-0.43
-0.67
-0.85
-1.11
-1.55
-2.15
-2.85
-3.52
-4.07
-4.42
-4.58
-4.52
-4.23
-3.65
-2.75
-1.52
-0.08
1.42
2.81
3.99
4.90
5.55
5.97
6.13
6.00
5.55
4.85
4.01
3.20
2.58
2.20
1.98
1.79
1.45
0.89
0.10
-0.81
-1.74
-2.54
-3.12
-3.37
-3.24
-2.69
-1.78
-0.60
0.65
1.81
2.70
3.29
3.59
3.69
3.65
3.53
3.33
3.05
2.70
2.28
1.82
1.29
0.68
-0.04
-0.80
-1.53
-2.11
-2.50
-2.75
-2.97
-3.27
-3.67
-4.07
-4.26
-4.05
-3.33
-2.13
-0.63
0.92
2.28
3.31
3.98
4.34
4.45
4.32
3.96
3.37
2.61
1.81
1.14
0.67
0.39
0.14
-0.22
-0.78
-1.49
-2.25
-2.98
-3.65
-4.27
-4.86
-5.27
-5.33
-4.85
-3.78
-2.26
-0.55
1.04
2.29
3.12
3.56
3.67
3.55
3.26
2.88
2.47
2.10
1.80
1.60
1.42
1.18
0.80
0.27
-0.40
-1.13
-1.84
-2.50
-3.11
-3.65
-4.08
-4.30
-4.21
-3.75
-2.94
-1.86
-0.66
0.55
1.69
2.70
3.53
4.10
4.35
4.25
3.81
3.13
2.31
1.43
0.59
-0.14
-0.68
-0.97
-1.04
-0.97
-0.93
-1.08
-1.53
-2.27
-3.15
-3.99
-4.56
-4.69
-4.31
-3.44
-2.14
-0.58
1.07
2.61
3.84
4.61
4.87
4.65
4.09
3.35
2.60
1.90
1.30
0.78
0.35
0.01
-0.23
-0.43
-0.66
-1.03
-1.57
-2.28
-3.03
-3.72
-4.19
-4.37
-4.24
-3.80
-3.10
-2.19
-1.14
-0.03
1.02
1.94
2.62
3.02
3.12
2.97
2.65
2.21
1.72
1.19
0.66
0.16
-0.23
-0.50
-0.67
-0.84
-1.16
-1.74
-2.57
-3.52
-4.37
-4.90
-5.03
-4.76
-4.18
-3.37
-2.37
-1.20
0.13
1.48
2.70
3.57
3.99
3.96
3.59
3.03
2.42
1.83
1.27
0.72
0.16
-0.39
-0.93
-1.42
-1.87
-2.31
-2.77
-3.25
-3.70
-4.04
-4.16
-3.96
-3.41
-2.52
-1.38
-0.06
1.32
2.65
3.82
4.73
5.33
5.63
5.70
5.59
5.36
5.03
4.55
3.89
3.08
2.20
1.35
0.60
-0.05
-0.67
-1.30
-1.99
-2.71
-3.41
-4.03
-4.50
-4.78
-4.81
-4.55
-3.94
-3.00
-1.80
-0.47
0.84
1.95
2.72
3.07
3.00
2.59
2.03
1.48
1.06
0.76
0.47
0.06
-0.53
-1.22
-1.86
-2.31
-2.50
-2.53
-2.57
-2.75
-3.09
-3.46
-3.68
-3.56
-3.03
-2.15
-1.05
0.12
1.23
2.23
3.12
3.89
4.56
5.10
5.46
5.63
5.59
5.36
4.97
4.42
3.77
3.06
2.40
1.89
1.57
1.41
1.28
1.03
0.54
-0.15
-0.91
-1.54
-1.85
-1.76
-1.28
-0.48
0.53
1.65
2.74
3.67
4.30
4.54
4.35
3.79
2.96
2.02
1.09
0.27
-0.40
-0.91
-1.25
-1.41
-1.45
-1.49
-1.68
-2.17
-3.01
-4.10
-5.21
-6.06
-6.42
-6.23
-5.53
-4.48
-3.24
-1.93
-0.66
0.48
1.43
2.15
2.63
2.93
3.06
3.03
2.78
2.26
1.49
0.58
-0.28
-0.88
-1.09
-0.96
-0.67
-0.52
-0.75
-1.42
-2.41
-3.40
-4.08
-4.24
-3.86
-3.11
-2.21
-1.29
-0.42
0.46
1.33
2.15
2.79
3.12
3.11
2.83
2.38
1.87
1.36
0.86
0.36
-0.11
-0.51
-0.84
-1.13
-1.44
-1.87
-2.48
-3.27
-4.12
-4.81
-5.11
-4.86
-4.03
-2.79
-1.40
-0.10
0.98
1.84
2.54
3.15
3.63
3.91
3.91
3.69
3.34
2.99
2.69
2.41
2.05
1.54
0.88
0.16
-0.51
-1.05
-1.45
-1.82
-2.25
-2.79
-3.38
-3.87
-4.06
-3.83
-3.15
-2.13
-0.94
0.22
1.24
2.04
2.58
2.86
2.84
2.57
2.07
1.44
0.73
0.01
-0.69
-1.31
-1.80
-2.14
-2.34
-2.50
-2.72
-3.11
-3.68
-4.33
-4.90
-5.18
-5.07
-4.53
-3.66
-2.58
-1.40
-0.22
0.92
1.99
2.95
3.70
4.17
4.26
3.98
3.41
2.70
2.03
1.48
1.09
0.78
0.48
0.11
-0.35
-0.86
-1.38
-1.88
-2.36
-2.80
-3.20
-3.46
-3.46
-3.06
-2.19
-0.91
0.59
2.01
3.08
3.64
3.70
3.40
2.92
2.41
1.92
1.46
1.00
0.55
0.15
-0.18
-0.42
-0.64
-0.94
-1.42
-2.12
-3.02
-3.96
-4.75
-5.17
-5.07
-4.45
-3.37
-2.01
-0.53
0.90
2.16
3.15
3.80
4.10
4.11
3.93
3.69
3.43
3.14
2.76
2.28
1.75
1.24
0.85
0.53
0.19
-0.28
-0.96
-1.77
-2.56
-3.11
-3.27
-2.97
-2.29
-1.35
-0.32
0.70
1.65
2.58
3.48
4.35
5.05
5.41
5.29
4.67
3.67
2.55
1.54
0.76
0.21
-0.19
-0.53
-0.85
-1.16
-1.48
-1.91
-2.50
-3.21
-3.88
-4.28
-4.22
-3.66
-2.73
-1.61
-0.48
0.57
1.54
2.44
3.21
3.70
3.82
3.55
2.99
2.31
1.69
1.23
0.91
0.67
0.42
0.07
-0.39
-0.94
-1.53
-2.09
-2.57
-2.93
-3.15
-3.23
-3.16
-2.91
-2.49
-1.89
-1.16
-0.33
0.51
1.31
2.02
2.59
2.95
3.09
2.99
2.69
2.30
1.93
1.64
1.47
1.36
1.26
1.10
0.85
0.50
0.06
-0.48
-1.10
-1.73
-2.28
-2.60
-2.58
-2.19
-1.47
-0.57
0.42
1.39
2.30
3.14
3.86
4.39
4.64
4.54
4.11
3.49
2.84
2.30
1.89
1.53
1.08
0.45
-0.35
-1.24
-2.10
-2.85
-3.49
-4.04
-4.53
-4.93
-5.12
-4.98
-4.47
-3.63
-2.61
-1.61
-0.77
-0.16
0.23
0.47
0.66
0.84
1.01
1.13
1.14
0.99
0.68
0.25
-0.22
-0.65
-0.98
-1.23
-1.45
-1.76
-2.23
-2.84
-3.46
-3.92
-4.05
-3.81
-3.25
-2.53
-1.77
-1.03
-0.28
0.51
1.36
2.19
2.87
3.29
3.42
3.26
2.91
2.46
2.00
1.57
1.17
0.78
0.37
-0.12
-0.66
-1.23
-1.75
-2.15
-2.44
-2.69
-2.96
-3.27
-3.53
-3.56
-3.19
-2.37
-1.20
0.12
1.35
2.33
3.00
3.40
3.57
3.58
3.45
3.22
2.90
2.52
2.10
1.69
1.29
0.85
0.34
-0.27
-0.93
-1.55
-2.02
-2.27
-2.38
-2.45
-2.62
-2.88
-3.13
-3.16
-2.83
-2.16
-1.27
-0.37
0.43
1.12
1.77
2.41
2.97
3.34
3.38
3.05
2.43
1.65
0.87
0.15
-0.48
-1.04
-1.49
-1.82
-1.99
-2.05
-2.07
-2.13
-2.28
-2.52
-2.78
-3.00
-3.11
-3.07
-2.82
-2.33
-1.59
-0.61
0.53
1.67
2.67
3.34
3.59
3.37
2.74
1.86
0.97
0.28
-0.06
-0.06
0.14
0.33
0.32
0.05
-0.44
-1.04
-1.64
-2.17
-2.59
-2.90
-3.11
-3.16
-3.00
-2.58
-1.88
-0.97
0.06
1.06
1.92
2.55
2.96
3.19
3.29
3.29
3.15
2.79
2.19
1.43
0.67
0.11
-0.13
-0.08
0.11
0.22
0.05
-0.46
-1.25
-2.14
-2.93
-3.45
-3.61
-3.39
-2.84
-2.03
-1.08
-0.06
0.91
1.78
2.47
2.91
3.09
3.02
2.80
2.52
2.28
2.12
2.01
1.88
1.68
1.41
1.09
0.73
0.34
-0.13
-0.71
-1.40
-2.11
-2.74
-3.14
-3.20
-2.90
-2.28
-1.43
-0.47
0.48
1.34
2.03
2.54
2.88
3.06
3.12
3.06
2.85
2.49
1.99
1.42
0.87
0.42
0.10
-0.14
-0.39
-0.75
-1.27
-1.91
-2.61
-3.25
-3.72
-3.93
-3.81
-3.36
-2.59
-1.58
-0.42
0.80
1.98
3.02
3.82
4.29
4.42
4.28
4.02
3.74
3.51
3.28
3.00
2.62
2.18
1.76
1.42
1.16
0.86
0.46
-0.10
-0.75
-1.39
-1.94
-2.34
-2.60
-2.71
-2.62
-2.23
-1.50
-0.44
0.81
2.03
3.05
3.77
4.25
4.62
5.04
5.55
6.14
6.72
7.21
7.57
7.84
8.07
8.29
8.54
8.79
8.99
9.14
9.24
9.36
9.56
9.88
10.28
10.62
10.75
10.51
9.89
8.99
7.96
6.97
6.12
5.42
4.83
4.27
3.69
3.06
2.36
1.63
0.94
0.39
0.08
0.01
0.05
0.02
-0.26
-0.85
-1.68
-2.56
-3.33
-3.96
-4.51
-5.05
-5.60
-6.07
-6.27
-6.08
-5.48
-4.62
-3.71
-2.93
-2.37
-1.99
-1.71
-1.44
-1.15
-0.86
-0.59
-0.40
-0.30
-0.31
-0.43
-0.61
-0.82
-1.07
-1.39
-1.83
-2.38
-2.98
-3.50
-3.86
-4.00
-3.94
-3.75
-3.44
-3.03
-2.50
-1.87
-1.17
-0.50
0.07
0.52
0.85
1.08
1.19
1.16
0.97
0.65
0.30
0.00
-0.20
-0.35
-0.55
-0.87
-1.32
-1.82
-2.26
-2.56
-2.74
-2.91
-3.17
-3.61
-4.21
-4.86
-5.45
-5.89
-6.15
-6.28
-6.34
-6.39
-6.46
-6.55
-6.67
-6.80
-6.94
-7.09
-7.27
-7.49
-7.76
-8.09
-8.42
-8.65
-8.67
-8.38
-7.77
-6.92
-5.97
-5.05
-4.20
-3.37
-2.43
-1.28
0.11
1.66
3.19
4.52
5.54
6.25
6.76
7.17
7.57
7.97
8.29
8.40
8.23
7.79
7.17
6.56
6.05
5.68
5.37
5.01
4.56
4.03
3.54
3.20
3.03
3.03
3.09
3.13
3.09
2.92
2.62
2.19
1.64
1.03
0.41
-0.15
-0.63
-1.01
-1.30
-1.47
-1.49
-1.35
-1.08
-0.83
-0.77
-1.01
-1.57
-2.31
-3.02
-3.52
-3.73
-3.70
-3.54
-3.36
-3.17
-2.95
-2.67
-2.32
-1.96
-1.65
-1.46
-1.38
-1.37
-1.36
-1.32
-1.26
-1.22
-1.24
-1.34
-1.49
-1.66
-1.86
-2.12
-2.46
-2.88
-3.29
-3.58
-3.64
-3.45
-3.10
-2.74
-2.49
-2.39
-2.40
-2.40
-2.34
-2.22
-2.10
-2.03
-2.01
-1.93
-1.71
-1.35
-0.96
-0.75
-0.86
-1.32
-1.96
-2.54
-2.87
-2.91
-2.77
-2.63
-2.61
-2.75
-2.97
-3.18
-3.35
-3.48
-3.59
-3.70
-3.78
-3.80
-3.74
-3.61
-3.44
-3.21
-2.93
-2.60
-2.26
-1.96
-1.80
-1.85
-2.15
-2.67
-3.32
-3.97
-4.51
-4.83
-4.92
-4.88
-4.84
-4.93
-5.19
-5.56
-5.93
-6.13
-6.08
-5.72
-5.09
-4.26
-3.34
-2.43
-1.59
-0.89
-0.36
-0.06
-0.03
-0.26
-0.70
-1.26
-1.77
-2.12
-2.27
-2.29
-2.30
-2.40
-2.64
-2.97
-3.34
-3.69
-4.04
-4.43
-4.87
-5.33
-5.75
-6.05
-6.16
-6.10
-5.87
-5.49
-4.95
-4.22
-3.29
-2.23
-1.15
-0.20
0.49
0.88
1.04
1.08
1.15
1.30
1.53
1.74
1.78
1.60
1.18
0.60
-0.04
-0.63
-1.15
-1.57
-1.88
-2.05
-2.00
-1.65
-0.98
-0.05
1.03
2.09
2.94
3.47
3.62
3.45
3.04
2.54
2.06
1.69
1.48
1.39
1.40
1.43
1.39
1.21
0.78
0.05
-0.96
-2.13
-3.28
-4.20
-4.79
-4.98
-4.83
-4.41
-3.77
-2.98
-2.06
-1.05
0.01
1.06
2.09
3.08
4.00
4.80
5.40
5.71
5.67
5.31
4.73
4.11
3.60
3.32
3.28
3.39
3.49
3.37
2.90
2.03
0.83
-0.51
-1.72
-2.50
-2.64
-2.07
-0.88
0.66
2.22
3.50
4.35
4.79
4.99
5.14
5.33
5.55
5.66
5.54
5.12
4.49
3.77
3.09
2.51
1.98
1.42
0.74
-0.09
-1.02
-1.96
-2.84
-3.53
-3.99
-4.16
-4.04
-3.67
-3.11
-2.43
-1.69
-0.89
-0.06
0.79
1.66
2.49
3.20
3.70
3.90
3.79
3.38
2.80
2.19
1.67
1.29
0.97
0.63
0.17
-0.41
-1.07
-1.69
-2.23
-2.66
-2.98
-3.21
-3.27
-3.08
-2.54
-1.60
-0.37
1.00
2.32
3.42
4.24
4.76
5.02
5.06
4.89
4.55
4.04
3.43
2.77
2.15
1.61
1.12
0.62
-0.02
-0.87
-1.94
-3.14
-4.31
-5.25
-5.83
-6.00
-5.76
-5.18
-4.32
-3.28
-2.18
-1.14
-0.27
0.39
0.90
1.37
1.89
2.44
2.94
3.23
3.26
3.01
2.59
2.10
1.61
1.14
0.69
0.25
-0.15
-0.51
-0.82
-1.15
-1.53
-1.95
-2.30
-2.45
-2.24
-1.64
-0.66
0.58
1.95
3.32
4.56
5.57
6.25
6.57
6.54
6.23
5.75
5.18
4.56
