1659777217.00
64.000000
-0.00
-0.00
-0.00
-0.00
-0.00
-0.00
-0.00
-0.00
-0.00
-0.00
0.00
0.01
0.01
-0.00
-0.03
-0.05
-0.05
0.00
0.13
0.36
0.66
1.01
1.37
1.72
2.06
2.40
2.79
3.24
3.80
4.42
5.06
5.66
6.20
6.68
7.15
7.68
8.31
9.14
10.09
11.04
11.88
12.56
13.14
13.76
14.65
15.96
17.91
20.32
22.90
25.38
27.58
29.57
31.68
34.32
37.81
42.54
48.15
54.10
59.83
64.97
69.58
74.14
79.34
85.71
93.76
103.00
112.62
121.73
129.77
136.75
143.30
150.74
157.77
166.64
177.96
191.82
207.01
220.61
228.25
225.28
208.33
176.54
132.31
79.53
22.52
-35.48
-92.96
-149.70
-205.84
-261.09
-314.58
-364.82
-410.82
-451.88
-487.42
-516.64
-538.19
-550.36
-551.39
-540.12
-516.21
-480.79
-435.95
-384.40
-328.92
-271.93
-215.23
-160.04
-107.21
-57.35
-11.26
30.24
66.31
96.36
120.16
138.06
150.82
159.51
165.23
168.76
170.49
170.34
168.05
163.35
156.33
147.51
137.76
128.05
119.07
111.05
103.74
96.61
89.06
80.61
70.90
59.84
47.80
35.97
26.42
21.67
23.67
32.75
47.03
62.93
76.46
84.90
87.47
85.23
80.18
74.09
67.81
61.40
54.67
47.75
41.27
35.94
32.18
29.79
28.10
26.26
23.67
20.29
16.53
13.06
10.43
8.88
8.23
7.95
7.46
6.35
4.57
2.39
0.30
-1.33
-2.37
-2.91
-3.08
-2.90
-2.25
-1.00
0.75
2.60
4.02
4.55
4.15
3.15
2.04
1.15
0.54
-0.02
-0.77
-1.75
-2.76
-3.51
-3.85
-3.87
-3.80
-3.86
-4.11
-4.42
-4.55
-4.33
-3.79
-3.10
-2.52
-2.23
-2.29
-2.57
-2.89
-3.06
-2.97
-2.61
-2.07
-1.50
-1.08
-0.89
-0.95
-1.10
-1.13
-0.76
0.14
1.59
3.42
5.36
7.13
8.54
9.57
10.28
10.78
11.18
11.51
11.72
11.69
11.27
10.36
8.97
7.19
5.22
3.13
0.97
-1.25
-3.51
-5.70
-7.65
-9.20
-10.31
-11.08
-11.66
-12.15
-12.53
-12.69
-12.50
-11.97
-11.24
-10.51
-9.95
-9.59
-9.37
-9.19
-8.99
-8.71
-8.28
-7.61
-6.59
-5.23
-3.69
-2.25
-1.20
-0.72
-0.80
-1.28
-1.91
-2.49
-2.90
-3.10
-3.12
-3.01
-2.84
-2.66
-2.52
-2.42
-2.29
-1.98
-1.36
-0.35
1.01
2.52
3.93
5.01
5.65
5.89
5.82
5.52
5.01
4.24
3.14
1.76
0.25
-1.17
-2.29
-3.04
-3.44
-3.59
-3.59
-3.48
-3.19
-2.62
-1.75
-0.64
0.55
1.65
2.53
3.18
3.61
3.82
3.77
3.37
2.54
1.33
-0.07
-1.45
-2.65
-3.63
-4.48
-5.36
-6.42
-7.73
-9.24
-10.85
-12.42
-13.80
-14.88
-15.58
-15.84
-15.59
-14.78
-13.44
-11.61
-9.41
-7.00
-4.54
-2.16
0.08
2.21
4.31
6.44
8.61
10.71
12.61
14.17
15.29
15.99
16.31
16.34
16.12
15.67
15.00
14.11
13.11
12.07
11.10
10.24
9.47
8.72
7.95
7.13
6.29
5.48
4.72
4.02
3.36
2.71
2.04
1.33
0.59
-0.18
-0.96
-1.71
-2.42
-3.07
-3.67
-4.28
-4.94
-5.62
-6.21
-6.51
-6.32
-5.53
-4.23
-2.65
-1.11
0.11
0.92
1.40
1.77
2.25
2.91
3.59
4.03
4.00
3.42
2.42
1.27
0.27
-0.41
-0.73
-0.77
-0.66
-0.47
-0.27
-0.11
-0.01
-0.03
-0.21
-0.58
-1.12
-1.75
-2.40
-3.01
-3.50
-3.88
-4.20
-4.53
-4.91
-5.28
-5.52
-5.43
-4.88
-3.85
-2.48
-0.99
0.40
1.55
2.48
3.25
3.97
4.63
5.14
5.32
5.06
4.39
3.45
2.47
1.61
0.92
0.33
-0.28
-0.97
-1.68
-2.23
-2.53
-2.52
-2.35
-2.20
-2.24
-2.57
-3.17
-3.99
-4.95
-5.99
-6.99
-7.79
-8.18
-7.95
-7.08
-5.70
-4.08
-2.47
-1.04
0.20
1.33
2.41
3.42
4.26
4.79
4.95
4.76
4.31
3.73
3.09
2.46
1.88
1.36
0.91
0.50
0.11
-0.31
-0.78
-1.30
-1.86
-2.44
-3.03
-3.66
-4.33
-5.05
-5.79
-6.48
-7.07
-7.51
-7.72
-7.61
-7.08
-6.08
-4.62
-2.83
-0.94
0.83
2.27
3.27
3.83
3.99
3.87
3.58
3.24
3.00
2.97
3.14
3.40
3.53
3.33
2.71
1.75
0.67
-0.29
-0.98
-1.36
-1.53
-1.64
-1.87
-2.35
-3.16
-4.30
-5.66
-7.01
-8.06
-8.56
-8.39
-7.59
-6.35
-4.87
-3.32
-1.80
-0.32
1.04
2.23
3.12
3.62
3.66
3.28
2.59
1.75
0.92
0.17
-0.50
-1.18
-1.97
-2.89
-3.90
-4.89
-5.80
-6.61
-7.37
-8.18
-9.03
-9.95
-10.94
-12.06
-13.42
-15.11
-17.06
-19.05
-20.67
-21.55
-21.41
-20.19
-18.04
-15.20
-11.93
-8.42
-4.78
-1.09
2.57
6.10
9.40
12.35
14.87
16.92
18.46
19.51
20.09
20.23
19.95
19.29
18.28
17.01
15.57
14.08
12.62
11.23
9.88
8.51
7.06
5.47
3.76
1.97
0.21
-1.36
-2.53
-3.06
-2.80
-1.74
-0.04
2.00
4.01
5.66
6.77
7.33
7.42
7.23
6.90
6.55
6.21
5.88
5.49
5.00
4.40
3.75
3.17
2.72
2.41
2.16
1.84
1.36
0.73
0.06
-0.55
-1.09
-1.67
-2.47
-3.56
-4.87
-6.06
-6.75
-6.61
-5.61
-3.95
-2.01
-0.17
1.38
2.60
3.57
4.37
5.00
5.44
5.63
5.61
5.40
5.07
4.62
4.02
3.28
2.43
1.57
0.81
0.24
-0.13
-0.37
-0.60
-0.90
-1.32
-1.86
-2.50
-3.23
-4.07
-5.01
-5.97
-6.80
-7.25
-7.07
-6.13
-4.49
-2.40
-0.23
1.70
3.20
4.27
5.03
5.63
6.12
6.47
6.57
6.39
5.91
5.25
4.52
3.80
3.14
2.53
1.97
1.48
1.08
0.77
0.53
0.24
-0.17
-0.77
-1.58
-2.59
-3.74
-4.92
-5.98
-6.72
-6.94
-6.54
-5.53
-4.09
-2.44
-0.79
0.74
2.13
3.38
4.49
5.37
5.94
6.12
5.94
5.49
4.94
4.41
3.99
3.65
3.34
2.98
2.54
2.07
1.66
1.36
1.20
1.16
1.12
0.99
0.66
0.04
-0.88
-2.08
-3.42
-4.70
-5.67
-6.09
-5.84
-4.94
-3.52
-1.79
0.01
1.72
3.23
4.50
5.51
6.27
6.78
6.99
6.87
6.40
5.61
4.61
3.56
2.65
1.99
1.62
1.46
1.40
1.34
1.18
0.90
0.51
0.07
-0.39
-0.81
-1.20
-1.61
-2.12
-2.83
-3.73
-4.76
-5.71
-6.38
-6.54
-6.14
-5.23
-3.94
-2.45
-0.89
0.64
2.06
3.28
4.17
4.63
4.64
4.22
3.52
2.73
2.02
1.52
1.27
1.24
1.29
1.27
1.04
0.56
-0.13
-0.88
-1.60
-2.20
-2.75
-3.33
-4.00
-4.75
-5.51
-6.16
-6.63
-6.88
-6.91
-6.71
-6.28
-5.55
-4.54
-3.27
-1.88
-0.54
0.63
1.54
2.18
2.57
2.65
2.40
1.81
0.92
-0.13
-1.15
-1.97
-2.53
-2.89
-3.20
-3.63
-4.21
-4.89
-5.60
-6.27
-6.92
-7.64
-8.54
-9.73
-11.10
-12.45
-13.65
-14.75
-15.86
-17.15
-18.52
-19.78
-20.73
-20.93
-20.04
-18.11
-15.60
-13.10
-11.33
-10.41
-10.21
-10.46
-10.30
-8.87
-5.84
-1.56
3.25
7.64
11.44
14.80
17.95
21.73
26.98
33.94
42.21
51.10
59.71
68.08
76.37
80.33
76.63
64.81
47.96
30.48
18.14
10.49
6.41
4.95
5.46
7.18
10.19
14.42
19.36
24.23
27.86
29.91
30.30
29.10
27.09
25.33
24.42
24.34
24.55
24.10
22.78
20.60
17.78
14.85
12.41
10.67
9.37
8.01
5.99
3.21
-0.21
-4.15
-8.39
-12.70
-17.00
-21.34
-25.70
-30.07
-34.11
-37.47
-39.84
-40.97
-40.66
-38.92
-35.97
-32.22
-28.26
-24.66
-21.87
-20.17
-19.57
-19.86
-20.73
-21.88
-23.08
-24.22
-25.22
-26.04
-26.66
-27.10
-27.48
-27.93
-28.61
-29.56
-30.74
-31.98
-33.05
-33.73
-33.94
-33.73
-33.35
-33.09
-33.26
-33.94
-34.99
-35.92
-36.11
-35.06
-32.56
-28.91
-24.77
-20.94
-18.01
-16.13
-14.96
-13.87
-12.17
-9.34
-5.15
0.36
6.91
14.01
21.04
27.25
31.99
34.81
35.61
34.69
32.50
29.56
26.27
22.90
19.68
16.78
14.32
12.27
10.55
9.11
8.20
8.31
10.07
13.87
19.61
26.60
33.73
39.78
43.82
45.43
44.83
42.74
40.20
38.28
37.78
38.96
41.38
44.04
45.78
45.63
43.14
38.45
32.14
24.94
17.50
10.29
3.55
-2.61
-8.13
-12.92
-16.92
-20.12
-22.62
-24.67
-26.60
-28.73
-31.23
-34.07
-37.04
-39.83
-42.14
-43.77
-44.68
-44.86
-44.36
-43.20
-41.40
-39.01
-36.19
-33.19
-30.27
-27.68
-25.57
-23.90
-22.56
-21.37
-20.17
-18.93
-17.71
-16.63
-15.81
-15.33
-15.18
-15.26
-15.44
-15.57
-15.54
-15.35
-15.03
-14.71
-14.54
-14.66
-15.16
-16.05
-17.20
-18.37
-19.21
-19.34
-18.49
-16.51
-13.50
-9.75
-5.66
-1.59
2.17
5.46
8.22
10.38
11.89
12.70
12.84
12.50
11.89
11.25
10.70
10.24
9.75
9.11
8.22
7.11
5.87
4.69
3.70
3.02
2.64
2.43
2.14
1.47
0.22
-1.58
-3.65
-5.44
-6.40
-6.09
-4.37
-1.39
2.45
6.68
10.86
14.62
17.76
20.18
21.88
22.98
23.65
24.09
24.49
24.95
25.47
25.95
26.24
26.20
25.82
25.18
24.52
24.09
24.09
24.54
25.28
26.01
26.37
26.11
25.13
23.56
21.75
20.14
19.16
19.14
20.12
21.91
24.05
25.99
27.22
27.54
27.15
26.58
26.48
27.28
28.97
31.06
32.83
33.59
33.05
31.32
28.83
25.98
22.91
19.51
15.52
10.80
5.41
-0.33
-6.04
-11.44
-16.42
-21.08
-25.64
-30.22
-34.81
-39.19
-42.97
-45.69
-47.03
-46.87
-45.36
-42.82
-39.66
-36.16
-32.50
-28.72
-24.89
-21.15
-17.77
-15.03
-13.08
-11.89
-11.21
-10.79
-10.45
-10.20
-10.16
-10.43
-11.02
-11.81
-12.67
-13.45
-14.16
-14.84
-15.58
-16.43
-17.42
-18.57
-19.98
-21.73
-23.81
-26.02
-27.97
-29.25
-29.58
-28.75
-26.79
-23.92
-20.49
-16.87
-13.36
-10.18
-7.57
-5.79
-4.77
-4.28
-4.06
-3.99
-4.05
-4.25
-4.59
-5.06
-5.76
-6.27
-6.08
-4.90
-2.81
-0.26
2.23
4.37
6.07
7.51
9.76
14.11
21.49
31.95
44.80
58.91
73.44
87.91
98.18
100.61
93.88
80.16
63.58
47.77
34.73
25.37
19.62
16.62
15.63
15.89
16.63
17.09
17.64
17.51
16.35
14.13
10.98
7.58
4.83
3.38
3.36
4.36
5.39
5.64
4.63
2.31
-0.99
-4.34
-6.85
-7.97
-7.56
-6.23
-4.41
-2.27
0.29
3.39
6.94
10.44
13.29
15.13
15.19
13.26
9.67
5.07
0.01
-5.26
-10.76
-16.51
-22.35
-29.07
-37.38
-47.58
-59.35
-72.03
-84.73
-96.75
-107.50
-110.91
-103.53
-86.47
-64.79
-43.80
-26.51
-13.43
-4.09
2.36
6.86
9.38
10.03
9.44
8.70
7.97
8.08
9.27
11.42
14.33
17.14
19.05
19.92
20.11
20.18
20.53
21.12
21.72
22.05
21.93
20.98
19.16
16.77
14.20
11.88
9.96
8.49
7.44
6.49
5.27
3.61
1.66
-0.24
-1.68
-2.39
-2.30
-1.46
-0.18
1.21
2.49
3.59
4.51
5.28
5.82
6.05
5.92
5.46
4.79
4.02
3.27
2.58
1.94
1.34
0.75
0.21
-0.26
-0.70
-1.16
-1.75
-2.52
-3.43
-4.43
-5.40
-6.25
-6.93
-7.42
-7.67
-7.62
-7.22
-6.43
-5.33
-4.05
-2.75
-1.58
-0.59
0.20
0.78
1.12
1.11
0.67
-0.24
-1.53
-3.04
-4.57
-5.95
-7.13
-8.10
-8.95
-9.77
-10.61
-11.47
-12.34
-13.17
-13.92
-14.55
-15.03
-15.33
-15.38
-15.06
-14.27
-12.86
-10.73
-7.82
-4.17
0.03
4.49
8.84
12.72
15.87
18.20
19.72
20.53
20.73
20.39
19.57
18.35
16.85
15.22
13.59
12.04
10.58
9.23
7.97
6.85
5.91
5.18
4.64
4.19
3.66
2.89
1.78
0.40
-1.09
-2.49
-3.57
-4.20
-4.33
-3.98
-3.22
-2.19
-1.07
-0.04
0.70
1.08
1.12
0.92
0.63
0.35
0.11
-0.07
-0.23
-0.38
-0.59
-0.93
-1.48
-2.25
-3.17
-4.12
-4.96
-5.62
-6.12
-6.55
-7.00
-7.56
-8.33
-9.37
-10.72
-12.30
-13.88
-15.10
-15.60
-15.17
-13.88
-12.07
-10.18
-8.61
-7.60
-7.18
-7.24
-7.67
-8.34
-9.18
-10.06
-10.83
-11.31
-11.35
-10.90
-9.98
-8.68
-7.07
-5.18
-3.00
-0.53
2.12
4.76
7.13
8.99
10.17
10.65
10.53
9.98
9.24
8.56
8.16
8.21
8.75
9.68
10.74
11.64
12.17
12.25
11.97
11.54
11.15
10.90
10.73
10.50
10.09
9.46
8.66
7.77
6.80
5.76
4.61
3.38
2.20
1.22
0.55
0.16
-0.10
-0.48
-1.19
-2.31
-3.73
-5.21
-6.46
-7.22
-7.32
-6.74
-5.58
-4.06
-2.44
-0.92
0.44
1.66
2.82
3.93
4.90
5.58
5.84
5.65
5.11
4.43
3.78
3.24
2.78
2.34
1.90
1.49
1.13
0.81
0.42
-0.19
-1.08
-2.19
-3.31
-4.24
-4.86
-5.21
-5.46
-5.72
-6.01
-6.16
-5.95
-5.19
-3.89
-2.22
-0.49
1.05
2.24
3.09
3.69
4.14
4.48
4.67
4.64
4.35
3.82
3.11
2.36
1.70
1.22
0.99
0.98
1.08
1.13
0.98
0.55
-0.14
-1.02
-2.01
-3.07
-4.20
-5.38
-6.49
-7.32
-7.65
-7.32
-6.37
-4.95
-3.29
-1.58
0.05
1.55
2.83
3.81
4.38
4.52
4.33
3.96
3.60
3.34
3.18
3.04
2.85
2.55
2.13
1.59
0.93
0.16
-0.70
-1.56
-2.31
-2.88
-3.27
-3.61
-4.02
-4.64
-5.43
-6.27
-6.93
-7.20
-6.90
-5.99
-4.50
-2.61
-0.54
1.44
3.11
4.32
5.07
5.47
5.67
5.81
5.93
5.99
5.93
5.70
5.30
4.75
4.05
3.22
2.28
1.30
0.38
-0.34
-0.79
-1.02
-1.20
-1.56
-2.34
-3.62
-5.29
-7.04
-8.47
-9.24
-9.17
-8.36
-7.05
-5.58
-4.20
-3.03
-2.11
-1.42
-0.97
-0.81
-0.99
-1.48
-2.17
-2.93
-3.67
-4.39
-5.16
-6.11
-7.34
-8.84
-10.51
-12.17
-13.61
-14.68
-15.29
-15.44
-15.24
-14.82
-14.33
-13.80
-13.18
-12.24
-10.73
-8.41
-5.21
-1.22
3.26
7.83
12.06
15.65
18.39
20.24
21.29
21.66
21.51
20.97
20.15
19.14
17.97
16.71
15.36
13.96
12.54
11.12
9.76
8.52
7.44
6.54
5.79
5.06
4.26
3.28
2.08
0.71
-0.72
-2.06
-3.14
-3.86
-4.12
-3.87
-3.10
-1.82
-0.14
1.77
3.63
5.18
6.22
6.71
6.72
6.42
5.99
5.56
5.17
4.80
4.38
3.82
3.09
2.17
1.10
0.02
-0.91
-1.53
-1.75
-1.65
-1.42
-1.31
-1.50
-2.09
-2.98
-3.96
-4.76
-5.14
-4.96
-4.21
-2.98
-1.44
0.23
1.85
3.30
4.50
5.39
5.97
6.28
6.30
6.08
5.64
5.04
4.38
3.74
3.18
2.71
2.24
1.67
0.97
0.17
-0.62
-1.29
-1.79
-2.18
-2.61
-3.22
-4.09
-5.17
-6.34
-7.40
-8.14
-8.43
-8.16
-7.30
-5.87
-4.02
-1.94
0.08
1.80
3.04
3.75
4.02
3.99
3.79
3.50
3.17
2.77
2.31
1.82
1.31
0.82
0.36
-0.06
-0.47
-0.88
-1.33
-1.90
-2.67
-3.69
-4.94
-6.31
-7.67
-8.87
-9.78
-10.32
-10.39
-9.88
-8.76
-7.05
-4.92
-2.62
-0.47
1.29
2.53
3.28
3.64
3.78
3.82
3.83
3.81
3.71
3.48
3.08
2.54
1.94
1.38
0.94
0.64
0.46
0.33
0.21
0.10
0.07
0.16
0.38
0.73
1.19
1.75
2.52
3.61
5.15
7.16
9.54
12.03
14.35
16.23
17.53
18.33
18.79
19.09
19.35
19.54
19.56
19.26
18.59
17.58
16.34
14.98
13.60
12.19
10.71
9.13
7.42
5.61
3.73
1.80
-0.17
-2.14
-4.06
-5.84
-7.39
-8.64
-9.57
-10.15
-10.40
-10.30
-9.87
-9.10
-8.06
-6.81
-5.47
-4.10
-2.79
-1.60
-0.63
0.03
0.34
0.30
0.02
-0.34
-0.67
-0.88
-1.00
-1.11
-1.28
-1.53
-1.82
-2.08
-2.26
-2.37
-2.49
-2.73
-3.18
-3.88
-4.81
-5.91
-7.08
-8.23
-9.25
-10.00
-10.33
-10.09
-9.23
-7.78
-5.88
-3.79
-1.81
-0.16
1.01
1.72
2.11
2.35
2.54
2.71
2.80
2.73
2.48
2.10
1.64
1.19
0.74
0.30
-0.14
-0.54
-0.86
-1.08
-1.27
-1.54
-2.00
-2.71
-3.60
-4.58
-5.50
-6.28
-6.83
-7.08
-6.94
-6.39
-5.45
-4.26
-2.99
-1.79
-0.73
0.23
1.16
2.08
2.92
3.50
3.69
3.46
2.93
2.33
1.83
1.50
1.25
0.94
0.51
0.05
-0.31
-0.45
-0.42
-0.40
-0.62
-1.17
-1.98
-2.84
-3.56
-4.05
-4.37
-4.64
-4.86
-4.92
-4.62
-3.81
-2.54
-1.01
0.53
1.88
3.00
3.90
4.64
5.18
5.45
5.42
5.10
4.64
4.19
3.86
3.64
3.42
3.06
2.49
1.74
0.93
0.20
-0.31
-0.57
-0.64
-0.66
-0.81
-1.25
-1.98
-2.92
-3.86
-4.57
-4.86
-4.63
-3.92
-2.82
-1.50
-0.13
1.15
2.21
2.98
3.44
3.62
3.60
3.47
3.28
3.05
2.74
2.32
1.74
1.04
0.29
-0.45
-1.12
-1.72
-2.30
-2.88
-3.46
-4.02
-4.54
-5.03
-5.57
-6.23
-7.03
-7.90
-8.68
-9.16
-9.15
-8.58
-7.48
-6.00
-4.32
-2.63
-1.06
0.31
1.43
2.27
2.84
3.19
3.38
3.48
3.52
3.47
3.24
2.78
2.09
1.26
0.49
-0.08
-0.38
-0.49
-0.55
-0.72
-1.06
-1.54
-2.07
-2.62
-3.17
-3.76
-4.37
-4.89
-5.13
-4.90
-4.13
-2.88
-1.34
0.31
1.89
3.32
4.52
5.44
6.00
6.12
5.80
5.15
4.33
3.52
2.84
2.33
1.93
1.55
1.10
0.55
-0.07
-0.68
-1.18
-1.47
-1.56
-1.53
-1.52
-1.72
-2.21
-2.98
-3.92
-4.82
-5.44
-5.62
-5.24
-4.30
-2.85
-1.07
0.86
2.69
4.22
5.29
5.87
6.02
5.88
5.58
5.22
4.84
4.47
4.09
3.69
3.26
2.78
2.22
1.61
1.03
0.58
0.36
0.35
0.47
0.53
0.36
-0.10
-0.84
-1.72
-2.56
-3.21
-3.56
-3.54
-3.12
-2.27
-1.07
0.37
1.87
3.24
4.34
5.08
5.44
5.46
5.16
4.61
3.90
3.16
2.48
1.95
1.55
1.22
0.86
0.41
-0.11
-0.62
-0.99
-1.13
-1.08
-1.00
-1.11
-1.58
-2.42
-3.48
-4.46
-5.07
-5.10
-4.56
-3.55
-2.26
-0.86
0.54
1.84
2.94
3.74
4.20
4.33
4.20
3.89
3.49
3.01
2.46
1.92
1.43
1.05
0.74
0.42
-0.01
-0.58
-1.27
-2.01
-2.76
-3.56
-4.49
-5.60
-6.86
-8.13
-9.28
-10.20
-10.86
-11.25
-11.30
-10.95
-10.08
-8.68
-6.86
-4.83
-2.83
-1.08
0.33
1.34
2.01
2.36
2.45
2.33
2.06
1.72
1.35
1.02
0.73
0.45
0.13
-0.27
-0.75
-1.24
-1.68
-2.03
-2.30
-2.54
-2.87
-3.38
-4.14
-5.08
-6.09
-6.99
-7.56
-7.61
-7.04
-5.87
-4.32
-2.64
-1.09
0.22
1.29
2.21
3.16
4.22
5.27
6.08
6.45
6.27
5.58
4.55
3.38
2.46
2.09
2.33
2.96
3.63
4.00
3.81
3.14
2.20
1.69
2.19
3.90
6.53
9.54
12.50
15.05
17.34
19.54
22.36
26.36
31.72
38.16
45.19
52.45
59.57
66.60
69.95
66.91
57.07
42.94
28.20
15.46
7.08
1.76
-1.75
-4.37
-6.07
-6.59
-6.18
-5.17
-4.01
-3.09
-2.81
-3.13
-4.00
-4.97
-5.64
-5.83
-5.64
-5.36
-5.24
-5.59
-6.31
-7.29
-8.11
-8.45
-8.14
-7.31
-6.28
-5.35
-4.84
-4.71
-4.88
-5.16
-5.44
-5.75
-6.23
-7.04
-8.24
-9.77
-11.39
-12.84
-13.87
-14.38
-14.41
-14.14
-13.80
-13.55
-13.45
-13.47
-13.54
-13.64
-13.75
-13.90
-14.04
-14.14
-14.14
-14.08
-14.06
-14.20
-14.58
-15.17
-15.80
-16.18
-16.05
-15.18
-13.53
-11.20
-8.44
-5.63
-3.13
-1.19
0.07
0.74
0.95
0.87
0.60
0.17
-0.42
-1.12
-1.82
-2.40
-2.73
-2.77
-2.54
-2.15
-1.74
-1.40
-1.23
-1.23
-1.46
-1.93
-2.65
-3.57
-4.56
-5.44
-6.06
-6.32
-6.23
-5.86
-5.28
-4.51
-3.53
-2.29
-0.84
0.73
2.25
3.58
4.66
5.50
6.15
6.61
6.87
6.84
6.48
5.80
4.87
3.79
2.67
1.58
0.58
-0.28
-0.94
-1.41
-1.73
-2.02
-2.43
-3.02
-3.78
-4.61
-5.41
-6.16
-6.90
-7.74
-8.70
-9.70
-10.53
-10.99
-10.97
-10.47
-9.63
-8.57
-7.38
-6.08
-4.69
-3.30
-2.07
-1.21
-0.86
-1.08
-1.76
-2.70
-3.69
-4.58
-5.26
-5.61
-5.52
-4.91
-3.74
-2.11
-0.23
1.59
3.07
4.04
4.40
4.20
3.56
2.64
1.63
0.74
0.12
-0.14
-0.03
0.38
0.99
1.68
2.36
2.95
3.38
3.57
3.48
3.11
2.54
1.89
1.29
0.86
0.69
0.87
1.52
2.73
4.57
7.02
9.94
13.07
16.12
18.74
20.58
21.34
20.71
18.45
14.55
9.31
3.50
-1.81
-5.56
-7.22
-7.08
-6.29
-6.45
-9.01
-14.60
-22.64
-31.55
-39.49
-45.23
-48.66
-50.65
-52.36
-54.40
-56.59
-57.99
-57.55
-54.73
-49.66
-42.88
-34.94
-26.16
-16.99
-8.58
-2.43
0.12
-1.14
-4.91
-8.73
-9.90
-6.71
0.83
10.70
20.13
26.84
29.86
29.54
26.96
23.23
19.10
14.70
9.46
3.12
-3.99
-10.84
-16.33
-20.00
-22.03
-22.85
-19.77
-11.26
1.88
15.94
26.60
30.95
28.10
19.23
7.11
-4.94
-15.09
-22.35
-27.03
-29.61
-30.42
-29.93
-28.63
-26.97
-25.40
-24.22
-23.02
-22.18
-21.55
-20.33
-17.98
-14.29
-9.35
-3.49
3.14
10.47
17.35
23.30
28.75
34.10
39.63
45.44
47.98
44.66
40.93
39.29
38.30
37.60
36.97
36.19
35.08
33.40
31.47
29.61
26.94
23.00
18.19
12.95
7.81
3.32
0.04
-1.19
0.20
3.46
7.69
12.32
16.68
20.27
22.83
24.42
25.49
26.48
27.07
27.01
26.32
25.10
23.51
21.80
20.16
18.81
17.82
16.85
15.63
14.07
12.22
10.18
8.05
5.87
3.55
0.92
-2.30
-6.24
-10.76
-15.51
-20.03
-23.87
-26.77
-28.65
-29.62
-29.94
-29.84
-29.56
-29.28
-29.12
-29.22
-29.64
-30.43
-31.54
-32.87
-34.27
-35.55
-36.55
-37.18
-37.41
-37.29
-36.85
-36.09
-34.94
-33.38
-31.38
-28.97
-26.21
-23.15
-19.81
-16.08
-11.81
-6.78
-0.73
6.50
14.92
24.29
34.14
43.87
52.98
61.28
68.91
76.22
83.53
90.86
97.80
103.55
107.12
107.61
104.55
98.06
89.07
79.11
69.96
63.10
59.18
57.81
57.73
57.23
54.91
50.07
43.01
34.86
27.20
21.62
19.25
20.47
24.79
30.92
37.13
41.60
42.83
39.88
32.55
21.34
7.41
-7.75
-22.50
-35.46
-45.75
-53.14
-57.94
-60.84
-62.58
-63.83
-65.00
-66.30
-67.69
-69.02
-70.06
-70.58
-70.49
-69.77
-68.52
-66.81
-64.66
-62.06
-58.95
-55.33
-51.22
-46.73
-41.94
-37.00
-32.07
-27.31
-22.92
-18.99
-15.55
-12.54
-9.87
-7.55
-5.70
-4.44
-3.83
-3.69
-3.64
-3.13
-1.70
0.92
4.68
9.25
14.12
18.76
22.65
25.43
26.78
26.55
24.75
21.68
17.89
14.08
10.83
8.42
6.73
5.31
3.68
1.54
-1.09
-3.89
-6.41
-8.28
-9.25
-9.27
-8.33
-6.53
-3.99
-0.91
2.42
5.69
8.60
10.90
12.39
12.95
12.51
11.13
8.98
6.34
3.52
0.71
-2.02
-4.69
-7.19
-9.17
-10.03
-9.21
-6.55
-2.50
1.90
5.46
7.27
7.13
5.47
3.11
0.85
-0.87
-1.94
-2.51
-2.74
-2.75
-2.60
-2.41
-2.37
-2.67
-3.48
-4.80
-6.54
-8.46
-10.31
-11.87
-13.04
-13.88
-14.60
-15.49
-16.74
-18.37
-20.13
-21.53
-22.08
-21.40
-19.43
-16.42
-12.83
-9.13
-5.67
-2.58
0.21
2.81
5.31
7.72
9.92
11.74
13.02
13.62
13.46
12.62
11.26
9.62
7.98
6.49
5.18
3.97
2.74
1.41
0.04
-1.26
-2.37
-3.27
-4.05
-4.86
-5.86
-7.08
-8.49
-10.01
-11.56
-13.10
-14.54
-15.70
-16.29
-15.99
-14.60
-12.12
-8.85
-5.22
-1.73
1.30
3.76
5.70
7.28
8.63
9.78
10.73
11.42
11.80
11.83
11.54
10.99
10.29
9.51
8.75
8.04
7.38
6.72
6.02
5.27
4.43
3.46
2.31
0.98
-0.49
-1.95
-3.25
-4.29
-5.17
-6.10
-7.35
-9.08
-11.23
-13.48
-15.36
-16.39
-16.27
-14.94
-12.55
-9.41
-5.92
-2.43
0.75
3.49
5.76
7.65
9.22
10.51
11.44
11.91
11.83
11.28
10.44
9.56
8.82
8.25
7.72
7.05
6.13
4.96
3.67
2.47
1.49
0.79
0.27
-0.17
-0.68
-1.28
-1.97
-2.69
-3.38
-4.00
-4.53
-4.84
-4.74
-3.99
-2.38
0.16
3.49
7.32
11.24
14.83
17.75
19.77
20.77
20.73
19.74
17.93
15.51
12.70
9.77
7.00
4.62
2.80
1.56
0.78
0.25
-0.24
-0.81
-1.46
-2.18
-2.93
-3.72
-4.54
-5.39
-6.18
-6.81
-7.27
-7.63
-8.09
-8.88
-10.06
-11.49
-12.85
-13.72
-13.74
-12.76
-10.86
-8.31
-5.46
-2.59
0.12
2.57
4.67
6.35
7.49
8.05
7.92
7.09
5.61
3.59
1.14
-1.54
-4.18
-6.44
-8.08
-9.46
-11.27
-14.33
-19.13
-25.50
-32.46
-38.55
-42.43
-43.52
-42.70
-41.44
-41.17
-42.52
-45.37
-49.16
-53.29
-57.36
-61.03
-64.31
-66.62
-66.95
-64.15
-57.85
-48.61
-37.78
-26.82
-14.06
0.60
16.10
30.72
43.41
53.68
61.90
68.38
72.98
75.56
75.85
74.22
70.10
63.93
56.32
47.85
38.98
30.19
22.02
14.58
7.95
2.21
-2.39
-5.79
-8.08
-9.45
-10.08
-10.09
-9.79
-9.45
-9.24
-9.08
-8.89
-8.54
-7.84
-6.58
-4.56
-1.83
1.39
4.83
8.32
11.79
15.21
18.55
21.69
24.42
26.36
27.18
26.69
24.93
22.08
18.40
14.15
9.61
5.09
1.06
-1.98
-3.50
-3.21
-1.20
1.96
5.48
8.54
10.75
12.15
13.18
14.26
15.49
16.53
16.85
16.01
14.00
11.33
8.79
7.08
6.49
6.86
7.68
8.41
8.65
8.32
7.56
6.68
5.93
5.43
5.16
4.96
4.69
4.23
3.62
2.92
2.18
1.37
0.40
-0.84
-2.33
-3.93
-5.40
-6.49
-7.14
-7.45
-7.68
-8.13
-9.04
-10.44
-12.21
-14.06
-15.59
-16.45
-16.37
-15.28
-13.29
-10.72
-7.93
-5.27
-2.98
-1.14
0.29
1.35
2.06
2.36
2.17
1.46
0.29
-1.13
-2.55
-3.75
-4.64
-5.30
-5.89
-6.55
-7.37
-8.30
-9.26
-10.19
-11.08
-12.01
-13.04
-14.20
-15.43
-16.60
-17.49
-17.90
-17.68
-16.74
-15.06
-12.69
-9.76
-6.46
-2.99
0.43
3.65
6.57
9.16
11.40
13.25
14.66
15.58
16.00
16.02
15.77
15.40
15.00
14.53
13.90
13.06
12.01
10.87
9.76
8.82
8.05
7.35
6.55
5.43
3.81
1.57
-1.29
-4.60
-8.02
-11.11
-13.45
-14.77
-15.01
-14.39
-13.24
-11.96
-10.81
-10.01
-9.61
-9.64
-10.07
-10.89
-12.03
-13.43
-15.06
-16.84
-18.70
-20.55
-22.30
-23.87
-25.24
-26.39
-27.32
-27.98
-28.34
-28.40
-28.22
-27.94
-27.73
-27.70
-27.90
-28.27
-28.71
-28.99
-28.80
-27.77
-25.51
-21.79
-16.67
-10.48
-3.78
2.88
9.15
14.91
20.22
25.14
29.61
33.43
36.37
38.26
39.04
38.72
37.32
34.84
31.39
27.23
22.83
18.67
15.07
12.00
9.06
5.72
1.55
-3.58
-9.50
-15.92
-22.54
-29.13
-35.46
-41.13
-45.59
-48.21
-48.53
-46.49
-42.43
-37.03
-31.00
-24.89
-19.02
-13.52
-8.49
-4.05
-0.35
2.57
4.81
6.67
8.50
10.56
12.88
15.25
17.31
18.82
19.70
20.18
20.59
21.24
22.20
23.34
24.38
25.10
25.50
25.72
25.99
26.38
26.80
27.02
26.97
26.76
26.73
27.28
28.59
30.57
32.81
34.87
36.49
37.76
38.96
40.34
41.90
43.37
44.34
44.50
43.83
42.58
41.21
40.04
39.11
38.20
37.04
35.50
33.67
31.85
30.43
29.85
30.21
31.09
31.80
31.67
30.42
28.18
25.48
23.00
21.66
21.79
23.04
24.68
26.20
27.60
29.17
31.26
33.97
37.68
42.10
46.35
49.51
51.15
51.47
50.82
49.42
47.22
44.84
42.41
39.46
35.34
29.70
22.70
14.40
4.73
-11.17
-33.54
-57.94
-78.18
-90.69
-95.82
-96.30
-95.54
-95.92
-97.98
-99.71
-98.85
-94.23
-86.32
-77.49
-68.90
-61.37
-55.03
-49.49
-43.53
-36.68
-29.47
-23.07
-18.42
-15.67
-14.44
-14.07
-13.87
-12.85
-10.81
-8.28
-6.15
-5.07
-5.08
-5.91
-7.04
-7.97
-8.24
-7.81
-7.09
-6.59
-6.68
-7.31
-8.29
-9.36
-10.38
-11.23
-11.99
-12.73
-13.45
-13.99
-14.10
-13.57
-12.29
-10.27
-7.65
-4.65
-1.52
1.48
4.13
6.32
7.99
9.13
9.76
9.91
9.62
8.99
8.19
7.38
6.68
6.11
5.59
5.02
4.32
3.52
2.70
1.95
1.29
0.67
-0.02
-0.88
-1.93
-3.17
-4.58
-6.14
-7.87
-9.72
-11.53
-13.05
-13.96
-13.97
-13.01
-11.20
-8.81
-6.19
-3.60
-1.12
1.25
3.60
5.91
8.09
9.92
11.19
11.78
11.69
11.09
10.20
9.22
8.26
7.33
6.41
5.51
4.70
4.06
3.62
3.26
2.80
2.07
0.99
-0.30
-1.57
-2.61
-3.40
-4.12
-5.08
-6.48
-8.31
-10.25
-11.82
-12.55
-12.19
-10.75
-8.50
-5.76
-2.85
-0.03
2.58
4.87
6.76
8.19
9.16
9.70
9.90
9.82
9.49
8.92
8.12
7.20
6.27
5.47
4.86
4.43
4.07
3.66
3.13
2.47
1.72
0.94
0.13
-0.71
-1.60
-2.58
-3.61
-4.72
-5.95
-7.34
-8.88
-10.43
-11.70
-12.35
-12.07
-10.74
-8.47
-5.58
-2.47
0.48
3.02
5.04
6.54
7.56
8.13
8.31
8.16
7.84
7.49
7.19
6.98
6.80
6.55
6.13
5.52
4.76
3.93
3.09
2.28
1.51
0.75
-0.02
-0.84
-1.74
-2.75
-3.83
-4.94
-6.03
-7.08
-8.13
-9.23
-10.31
-11.22
-11.65
-11.29
-9.99
-7.81
-5.11
-2.31
0.23
2.36
4.12
5.63
6.98
8.15
9.03
9.50
9.52
9.14
8.47
7.66
6.87
6.20
5.71
5.42
5.26
5.12
4.88
4.42
3.70
2.77
1.68
0.53
-0.63
-1.80
-2.99
-4.23
-5.56
-6.98
-8.46
-9.91
-11.19
-12.14
-12.59
-12.39
-11.47
-9.80
-7.46
-4.65
-1.60
1.45
4.30
6.81
8.86
10.36
11.18
11.23
10.54
9.31
7.88
6.64
5.85
5.58
5.66
5.79
5.69
5.24
4.45
3.49
2.55
1.81
1.34
1.12
0.99
0.74
0.18
-0.85
-2.34
-4.18
-6.14
-7.96
-9.39
-10.19
-10.23
-9.46
-7.96
-5.91
-3.55
-1.08
1.35
3.61
5.63
7.31
8.51
9.13
9.16
8.72
8.01
7.28
6.70
6.31
6.02
5.64
5.04
4.16
3.06
1.90
0.84
-0.02
-0.69
-1.25
-1.80
-2.40
-3.03
-3.65
-4.24
-4.86
-5.64
-6.64
-7.83
-9.00
-9.83
-9.96
-9.18
-7.51
-5.19
-2.62
-0.20
1.86
3.53
4.89
6.05
7.00
7.62
7.75
7.31
6.36
5.16
3.96
2.96
2.19
1.59
1.05
0.50
-0.01
-0.43
-0.71
-0.93
-1.20
-1.67
-2.39
-3.33
-4.41
-5.51
-6.59
-7.64
-8.69
-9.65
-10.41
-10.78
-10.58
-9.76
-8.38
-6.60
-4.61
-2.64
-0.82
0.73
1.94
2.74
3.07
2.94
2.39
1.55
0.61
-0.29
-1.05
-1.70
-2.36
-3.15
-4.17
-5.42
-6.78
-8.11
-9.31
-10.36
-11.35
-12.45
-13.88
-15.76
-18.11
-20.73
-23.30
-25.44
-26.81
-27.24
-26.75
-25.54
-23.84
-21.92
-19.95
-17.98
-16.02
-14.07
-12.12
-10.20
-8.37
-6.67
-5.17
-3.84
-2.61
-1.35
0.13
1.96
4.19
6.72
9.38
11.97
14.34
16.45
18.36
20.23
22.14
24.16
26.26
28.37
30.39
32.25
33.90
35.35
36.66
37.88
39.06
40.23
41.36
42.39
43.30
44.04
44.57
44.78
44.48
43.46
41.64
39.04
35.87
32.43
29.00
25.70
22.48
19.24
15.84
12.32
8.76
5.35
2.20
-0.65
-3.26
-5.74
-8.22
-10.78
-13.52
-16.49
-19.73
-23.22
-26.84
-30.36
-33.52
-36.04
-37.71
-38.43
-38.22
-37.13
-35.26
-32.62
-29.23
-25.15
-20.56
-15.79
-11.28
-7.43
-4.40
-2.11
-0.26
1.46
3.21
4.87
6.11
6.55
5.92
4.19
1.52
-1.80
-5.33
-8.54
-10.77
-11.40
-10.06
-6.88
-2.51
2.00
5.64
7.79
8.47
8.17
7.61
7.32
7.44
7.82
8.13
8.16
7.88
7.41
6.87
6.32
5.68
4.82
3.65
2.17
0.50
-1.19
-2.78
-4.25
-5.65
-7.07
-8.50
-9.88
-11.11
-12.12
-12.92
-13.54
-14.03
-14.44
-14.83
-15.26
-15.81
-16.48
-17.05
-17.11
-16.16
-13.90
-10.33
-5.71
-0.34
5.53
11.66
17.69
22.96
26.63
28.01
26.96
24.05
20.30
16.59
13.09
9.52
5.42
0.79
-3.78
-7.33
-9.06
-8.67
-6.14
-2.08
2.34
5.67
6.66
4.61
-0.63
-8.39
-17.29
-25.51
-32.12
-36.40
-38.20
-37.74
-35.48
-31.94
-27.55
-22.72
-17.94
-13.71
-10.06
-7.13
-4.90
-3.20
-1.81
-0.58
0.54
1.46
1.91
1.74
0.90
-0.43
-1.91
-3.16
-3.93
-4.17
-4.07
-3.93
-4.01
-4.47
-5.26
-6.30
-7.48
-8.77
-10.19
-11.77
-13.45
-15.06
-16.34
-16.95
-16.61
-15.15
-12.61
-9.26
-5.49
-1.73
1.76
4.85
7.62
10.17
12.53
14.57
16.07
16.85
16.83
16.11
14.92
13.49
11.98
10.50
9.12
7.92
6.97
6.27
5.76
5.28
4.65
3.77
2.64
1.35
0.03
-1.29
-2.69
-4.32
-6.26
-8.43
-10.57
-12.23
-12.94
-12.38
-10.45
-7.34
-3.43
0.78
4.85
8.45
11.41
13.65
15.22
16.14
16.44
16.19
15.45
14.34
13.02
11.68
10.47
9.45
8.59
7.78
6.88
5.80
4.59
3.36
2.29
1.50
1.02
0.68
0.25
-0.53
-1.81
-3.60
-5.75
-7.97
-9.94
-11.36
-11.93
-11.50
-10.00
-7.54
-4.38
-0.92
2.42
5.30
7.48
8.92
9.68
9.90
9.75
9.36
8.82
8.20
7.51
6.77
5.99
5.19
4.37
3.52
2.58
1.48
0.21
-1.18
-2.58
-3.86
-4.99
-6.04
-7.21
-8.69
-10.58
-12.84
-15.30
-17.66
-19.60
-20.84
-21.17
-20.54
-19.00
-16.77
-14.12
-11.30
-8.45
-5.62
-2.78
0.10
2.98
5.77
8.41
10.85
13.13
15.28
17.31
19.11
20.56
21.48
21.81
21.59
20.95
20.09
19.14
18.15
17.07
15.80
14.23
12.34
10.19
7.88
5.53
3.20
0.96
-1.10
-2.83
-4.03
-4.49
-4.10
-2.89
-1.01
1.30
3.77
6.18
8.35
10.12
11.40
12.13
12.35
12.15
11.72
11.22
10.77
10.42
10.16
9.89
9.55
9.07
8.41
7.59
6.60
5.50
4.33
3.14
2.00
0.98
0.10
-0.64
-1.31
-2.00
-2.79
-3.76
-4.91
-6.18
-7.43
-8.42
-8.91
-8.68
-7.64
-5.90
-3.71
-1.44
0.59
2.24
3.52
4.53
5.38
6.10
6.62
6.82
6.66
6.18
5.51
4.79
4.14
3.59
3.13
2.72
2.35
2.00
1.67
1.37
1.06
0.71
0.30
-0.17
-0.72
-1.31
-1.92
-2.54
-3.15
-3.72
-4.26
-4.80
-5.42
-6.21
-7.21
-8.35
-9.46
-10.26
-10.52
-10.08
-8.96
-7.33
-5.40
-3.43
-1.57
0.09
1.50
2.67
3.61
4.35
4.91
5.31
5.56
5.64
5.54
5.23
4.71
4.02
3.21
2.36
1.58
0.97
0.57
0.37
0.29
0.21
0.04
-0.29
-0.79
-1.46
-2.26
-3.18
-4.21
-5.34
-6.55
-7.82
-9.12
-10.43
-11.72
-12.93
-13.99
-14.77
-15.13
-14.95
-14.18
-12.94
-11.48
-10.13
-9.15
-8.64
-8.47
-8.41
-8.21
-7.73
-6.96
-5.98
-4.83
-3.49
-1.86
0.10
2.37
4.81
7.22
9.43
11.30
12.80
13.92
14.69
15.11
15.19
14.90
14.29
13.41
12.33
11.11
9.74
8.22
6.55
4.82
3.17
1.75
0.75
0.23
0.23
0.70
1.60
2.82
4.25
5.71
7.06
8.13
8.84
9.18
9.21
9.04
8.76
8.42
8.05
7.63
7.12
6.49
5.75
4.91
4.03
3.17
2.37
1.67
1.03
0.43
-0.18
-0.84
-1.57
-2.36
-3.20
-4.06
-4.92
-5.77
-6.56
-7.23
-7.69
-7.83
-7.59
-6.95
-5.97
-4.72
-3.32
-1.89
-0.52
0.69
1.68
2.41
2.86
3.04
2.97
2.70
2.25
1.68
1.07
0.50
0.09
-0.15
-0.27
-0.35
-0.50
-0.78
-1.15
-1.52
-1.80
-1.98
-2.10
-2.30
-2.68
-3.26
-4.03
-4.89
-5.77
-6.59
-7.30
-7.79
-7.96
-7.68
-6.90
-5.72
-4.31
-2.91
-1.72
-0.81
-0.12
0.48
1.10
1.77
2.41
2.88
3.13
3.15
3.05
2.96
2.91
2.91
2.88
2.78
2.64
2.52
2.50
2.58
2.69
2.72
2.52
2.04
1.31
0.47
-0.32
-0.97
-1.47
-1.94
-2.53
-3.31
-4.21
-5.01
-5.46
-5.37
-4.73
-3.70
-2.46
-1.18
0.11
1.39
2.60
3.65
4.37
4.67
4.58
4.22
3.77
3.34
2.97
2.60
2.17
1.68
1.16
0.68
0.27
-0.07
-0.39
-0.74
-1.15
-1.65
-2.26
-2.98
-3.79
-4.63
-5.40
-5.98
-6.24
-6.13
-5.67
-4.91
-3.91
-2.67
-1.19
0.51
2.39
4.30
6.06
7.45
8.31
8.55
8.18
7.35
6.27
5.23
4.47
4.12
4.11
4.26
4.27
3.97
3.31
2.46
1.65
1.05
0.68
0.44
0.14
-0.32
-0.99
-1.77
-2.60
-3.42
-4.20
-4.92
-5.48
-5.72
-5.49
-4.72
-3.52
-2.16
-0.95
-0.10
0.36
0.54
0.62
0.69
0.75
0.69
0.43
-0.05
-0.67
-1.33
-1.99
-2.63
-3.24
-3.79
-4.18
-4.32
-4.17
-3.81
-3.40
-3.12
-3.11
-3.36
-3.84
-4.46
-5.17
-5.93
-6.70
-7.40
-7.95
-8.24
-8.21
-7.83
-7.15
-6.23
-5.17
-4.05
-2.92
-1.82
-0.76
0.28
1.24
2.08
2.75
3.15
3.28
3.14
2.86
2.59
2.47
2.56
2.82
3.09
3.22
3.08
2.65
2.07
1.48
1.03
0.74
0.53
0.24
-0.29
-1.15
-2.29
-3.59
-4.80
-5.66
-5.95
-5.54
-4.48
-2.93
-1.16
0.59
2.12
3.38
4.37
5.14
5.72
6.13
6.39
6.56
6.66
6.72
6.68
6.43
5.91
5.14
4.24
3.42
2.83
2.53
2.45
2.45
2.40
2.21
1.89
1.46
0.94
0.33
-0.36
-1.14
-1.95
-2.69
-3.24
-3.48
-3.32
-2.76
-1.90
-0.88
0.13
1.02
1.79
2.50
3.21
3.92
4.56
4.97
5.06
4.77
4.16
3.32
2.34
1.31
0.31
-0.57
-1.24
-1.62
-1.70
-1.56
-1.30
-1.04
-0.87
-0.81
-0.89
-1.13
-1.58
-2.22
-3.00
-3.81
-4.49
-4.93
-5.11
-5.05
-4.84
-4.52
-4.10
-3.48
-2.60
-1.47
-0.18
1.12
2.27
3.17
3.76
4.05
4.04
3.80
3.40
3.00
2.76
2.79
3.04
3.35
3.52
3.41
3.00
2.44
1.90
1.45
1.09
0.73
0.27
-0.34
-1.07
-1.88
-2.72
-3.56
-4.38
-5.08
-5.54
-5.63
-5.23
-4.33
-3.00
-1.43
0.14
1.48
2.40
2.82
2.80
2.46
2.02
1.63
1.37
1.26
1.22
1.18
1.09
0.90
0.64
0.29
-0.12
-0.57
-1.03
-1.47
-1.86
-2.19
-2.46
-2.71
-3.02
-3.47
-4.10
-4.90
-5.80
-6.61
-7.12
-7.13
-6.58
-5.53
-4.15
-2.65
-1.18
0.20
1.50
2.70
3.76
4.58
5.09
5.27
5.17
4.93
4.65
4.45
4.36
4.38
4.47
4.53
4.42
4.00
3.17
1.94
0.41
-1.25
-2.88
-4.42
-5.92
-7.49
-9.21
-11.09
-13.02
-14.87
-16.50
-17.87
-19.01
-19.96
-20.73
-21.25
-21.46
-21.31
-20.85
-20.20
-19.51
-18.95
-18.69
-18.83
-19.41
-20.41
-21.69
-23.08
-24.28
-25.07
-25.37
-25.27
-24.93
-24.49
-23.94
-23.19
-22.04
-20.14
-17.26
-13.42
-8.88
-3.94
1.20
6.40
11.53
16.40
21.28
26.38
31.78
37.38
43.07
48.77
54.38
59.68
64.38
68.87
73.47
78.05
82.00
84.57
85.30
84.08
81.11
76.75
72.40
69.14
67.33
66.60
66.35
66.27
66.42
66.99
62.40
49.68
29.74
7.02
-13.82
-30.44
-42.65
-51.24
-57.12
-61.01
-62.57
-61.65
-58.68
-54.48
-50.22
-46.58
-43.81
-41.91
-40.72
-39.29
-36.84
-33.14
-28.57
-23.84
-19.52
-15.93
-13.47
-12.13
-11.19
-9.93
-7.93
-5.24
-2.23
0.73
3.22
4.92
5.77
6.13
6.49
7.22
8.50
10.26
12.30
14.08
15.09
15.12
14.46
13.60
12.97
12.76
12.85
13.01
12.53
10.94
8.27
5.06
1.90
-0.82
-2.81
-3.79
-3.39
-2.19
-1.07
-0.94
-2.31
-5.37
-9.86
-15.04
-19.97
-23.94
-27.86
-33.19
-40.93
-51.12
-63.04
-75.72
-88.15
-99.60
-103.46
-95.57
-76.87
-53.06
-30.36
-12.35
0.06
7.67
11.87
14.26
15.26
15.03
14.03
13.09
13.08
13.81
15.79
19.01
23.13
26.86
29.03
29.28
28.14
26.61
25.53
25.43
26.21
27.49
28.21
27.42
25.15
21.85
18.22
14.82
12.05
9.93
8.32
6.81
5.07
3.06
0.95
-0.96
-2.46
-3.44
-3.94
-4.03
-3.86
-3.54
-3.11
-2.60
-2.01
-1.36
-0.65
0.07
0.70
1.18
1.44
1.45
1.22
0.78
0.22
-0.40
-1.08
-1.79
-2.54
-3.28
-3.94
-4.46
-4.83
-5.03
-5.08
-5.03
-4.96
-4.97
-5.18
-5.67
-6.44
-7.38
-8.38
-9.31
-10.07
-10.57
-10.75
-10.54
-9.91
-8.89
-7.61
-6.24
-4.97
-3.94
-3.16
-2.64
-2.37
-2.33
-2.52
-2.99
-3.77
-4.85
-6.08
-7.29
-8.33
-9.14
-9.73
-10.21
-10.78
-11.67
-12.98
-14.68
-16.57
-18.48
-20.30
-21.92
-23.23
-24.24
-25.09
-25.90
-26.67
-27.26
-27.36
-26.61
-24.38
-20.07
-13.33
-4.28
6.61
18.58
30.77
42.36
51.50
56.55
57.28
54.98
51.39
47.77
44.79
42.56
40.91
39.57
38.69
38.07
37.43
36.35
34.49
31.76
28.33
24.51
20.50
16.56
12.74
9.27
6.14
3.27
0.50
-2.30
-5.26
-8.44
-11.74
-14.93
-17.77
-20.14
-22.05
-23.55
-24.70
-25.53
-26.01
-26.04
-25.48
-24.24
-22.34
-19.90
-17.02
-13.85
-10.48
-6.99
-3.43
0.03
3.14
5.53
6.81
6.70
5.19
2.49
-1.03
-4.95
-8.98
-12.99
-17.05
-21.32
-25.98
-31.19
-36.98
-43.23
-49.53
-55.29
-59.71
-62.07
-61.94
-59.41
-55.12
-50.12
-45.63
-42.66
-41.64
-42.21
-43.34
-43.66
-41.96
-37.54
-30.32
-20.72
-9.40
2.91
15.53
27.71
38.66
47.86
55.34
61.85
68.59
76.47
85.51
94.58
101.69
104.58
101.48
91.86
76.77
58.76
41.24
27.63
20.42
20.29
25.74
33.60
40.38
43.73
43.14
39.66
34.81
29.69
24.49
18.39
10.41
0.29
-11.07
-22.21
-31.79
-39.22
-44.17
-45.27
-40.75
-30.45
-17.17
-5.46
0.64
-0.75
-9.17
-21.74
-34.70
-45.13
-51.91
-55.40
-56.45
-56.38
-54.51
-50.18
-42.96
-33.28
-22.44
-12.04
-3.24
3.79
9.62
15.17
19.90
23.23
24.78
24.42
22.25
18.75
14.68
10.85
8.31
6.78
5.77
4.65
2.85
0.03
-3.62
-7.46
-10.56
-12.00
-11.36
-8.57
-4.10
0.98
5.24
7.48
7.16
4.75
1.56
-0.89
-1.28
0.86
5.01
10.05
14.77
18.39
20.63
21.62
21.59
20.82
19.52
17.83
15.97
14.18
12.75
11.83
11.41
11.23
10.94
10.17
8.69
6.52
3.95
1.39
-0.78
-2.40
-3.58
-4.65
-5.97
-7.77
-10.05
-12.61
-15.06
-16.96
-17.97
-17.90
-16.81
-14.98
-12.77
-10.53
-8.47
-6.63
-4.94
-3.36
-1.89
-0.57
0.55
1.53
2.54
3.80
5.47
7.53
9.79
11.94
13.68
14.78
15.20
15.00
14.42
13.70
13.13
12.89
13.01
13.39
13.82
14.07
13.94
13.28
11.89
9.53
6.00
1.29
-4.28
-10.03
-15.14
-18.87
-20.96
-21.63
-21.57
-21.57
-22.21
-23.62
-25.45
-26.98
-27.37
-25.99
-22.63
-17.68
-12.04
-6.75
-2.58
0.31
2.37
4.31
6.59
9.08
11.03
11.53
9.97
6.36
1.27
-4.48
-9.97
-14.00
-15.00
-11.35
-2.32
11.02
25.54
36.97
41.76
38.86
30.24
19.86
11.61
7.42
6.78
7.54
7.64
6.28
4.07
2.16
1.20
0.88
0.25
-1.55
-4.68
-8.52
-11.97
-14.11
-14.63
-14.00
-13.11
-12.85
-13.58
-15.04
-16.37
-16.61
-15.12
-11.85
-7.36
-2.56
1.67
4.83
6.86
8.05
8.85
9.54
10.15
10.48
10.29
9.43
7.90
5.88
3.66
1.51
-0.39
-1.97
-3.24
-4.27
-5.11
-5.86
-6.58
-7.37
-8.30
-9.47
-10.99
-12.92
-15.18
-17.54
-19.53
-20.65
-20.45
-18.77
-15.79
-11.99
-7.93
-4.10
-0.76
2.00
4.19
5.85
6.95
7.49
7.53
7.18
6.61
6.01
5.49
5.11
4.85
4.61
4.24
3.61
2.64
1.32
-0.23
-1.84
-3.38
-4.79
-6.14
-7.57
-9.22
-11.11
-13.11
-14.91
-16.17
-16.57
-15.91
-14.21
-11.67
-8.58
-5.23
-1.88
1.32
4.25
6.79
8.84
10.26
11.03
11.16
10.77
10.06
9.20
8.28
7.36
6.40
5.35
4.18
2.90
1.55
0.22
-1.01
-2.10
-3.00
-3.73
-4.41
-5.21
-6.36
-8.04
-10.19
-12.55
-14.57
-15.62
-15.21
-13.13
-9.59
-5.08
-0.20
4.56
8.90
12.70
15.91
18.51
20.41
21.58
21.99
21.76
21.12
20.37
19.80
19.57
19.66
19.87
19.91
19.52
18.51
16.86
14.65
11.95
8.83
5.36
1.62
-2.27
-6.15
-9.93
-13.53
-16.91
-20.01
-22.72
-24.80
-26.00
-26.07
-24.87
-22.44
-18.98
-14.75
-10.10
-5.39
-0.94
2.98
6.18
8.54
9.98
10.53
10.36
9.83
9.31
9.10
9.35
10.02
10.83
11.35
11.35
10.94
10.68
11.18
12.65
14.71
16.45
16.61
14.15
8.69
0.74
-8.40
-17.26
-24.76
-30.40
-33.57
-33.69
-30.96
-26.64
-22.48
-19.78
-18.52
-18.31
-18.78
-19.62
-20.60
-21.47
-22.04
-22.10
-21.19
-18.79
-14.46
-8.00
0.50
10.63
21.74
33.08
42.09
46.25
44.27
37.35
28.34
19.95
13.63
9.36
6.11
2.59
-0.96
-4.70
-8.29
-11.45
-14.23
-16.98
-20.09
-23.77
-27.89
-31.71
-34.77
-36.30
-35.90
-33.59
-29.67
-24.53
-18.63
-12.42
-6.23
-0.48
4.61
8.78
11.84
13.75
14.70
15.06
15.35
16.14
17.78
20.38
23.52
26.37
28.02
27.85
25.76
22.14
17.68
12.97
8.40
3.97
-0.43
-4.91
-9.36
-13.49
-16.94
-19.43
-20.89
-21.48
-21.54
-21.50
-21.71
-22.29
-23.10
-23.75
-23.79
-22.84
-20.78
-17.75
-14.12
-10.34
-6.82
-3.82
-1.46
0.22
1.25
1.67
1.55
1.08
0.51
0.17
0.28
0.96
2.17
3.79
5.69
7.84
10.26
12.99
16.03
19.26
22.54
25.74
28.86
31.90
34.86
37.68
40.25
42.50
44.46
46.32
48.34
50.76
53.47
56.03
57.92
58.78
58.57
57.53
56.07
54.50
53.03
51.46
49.47
46.95
44.02
40.98
38.03
35.26
32.80
31.04
30.09
29.74
29.59
29.11
27.86
25.70
22.89
20.06
17.92
16.28
14.05
9.85
2.68
-7.78
-21.14
-36.68
-54.53
-72.11
-85.92
-93.84
-95.77
-92.60
-85.42
-75.35
-63.88
-52.68
-43.14
-36.42
-33.02
-32.43
-33.29
-34.46
-34.79
-33.82
-31.62
-28.41
-24.72
-21.08
-17.82
-14.94
-12.40
-10.20
-8.48
-7.32
-6.62
-6.33
-6.20
-6.14
-6.10
-6.11
-6.24
-6.66
-7.46
-8.57
-9.87
-11.18
-12.31
-12.95
-12.86
-11.84
-9.88
-7.12
-3.76
-0.05
3.68
7.17
10.21
12.67
14.51
15.75
16.40
16.53
16.21
15.51
14.50
13.31
12.06
10.87
9.82
8.91
8.13
7.43
6.76
6.09
5.41
4.73
4.05
3.31
2.46
1.40
0.06
-1.60
-3.58
-5.82
-8.16
-10.38
-12.18
-13.25
-13.32
-12.32
-10.32
-7.57
-4.42
-1.15
2.01
4.88
7.34
9.29
10.66
11.50
11.93
12.11
12.14
11.99
11.54
10.66
9.35
7.77
6.17
4.81
3.85
3.28
2.95
2.66
2.25
1.62
0.79
-0.19
-1.22
-2.28
-3.39
-4.64
-6.13
-7.88
-9.81
-11.70
-13.26
-14.14
-14.11
-13.05
-11.06
-8.35
-5.29
-2.22
0.54
2.84
4.68
6.10
7.21
8.04
8.60
8.89
8.93
8.77
8.46
8.03
7.45
6.72
5.86
4.98
4.20
3.59
3.11
2.62
1.98
1.08
-0.01
-1.16
-2.21
-3.08
-3.85
-4.67
-5.73
-7.13
-8.83
-10.60
-12.09
-12.95
-12.89
-11.79
-9.76
-7.08
-4.12
-1.23
1.34
3.45
5.04
6.12
6.68
6.78
6.49
5.98
5.42
4.93
4.57
4.28
3.95
3.51
2.94
2.31
1.71
1.19
0.75
0.35
-0.08
-0.56
-1.11
-1.75
-2.54
-3.54
-4.83
-6.42
-8.19
-9.92
-11.32
-12.09
-12.02
-11.05
-9.30
-6.96
-4.32
-1.64
0.85
3.03
4.88
6.39
7.60
8.50
9.01
9.04
8.58
7.66
6.46
5.20
4.06
3.13
2.41
1.80
1.26
0.79
0.41
0.14
-0.06
-0.31
-0.74
-1.44
-2.41
-3.66
-5.12
-6.73
-8.35
-9.79
-10.80
-11.15
-10.67
-9.33
-7.28
-4.78
-2.16
0.32
2.48
4.24
5.53
6.30
6.46
5.92
4.73
3.09
1.30
-0.30
-1.54
-2.41
-3.10
-3.82
-4.70
-5.71
-6.75
-7.70
-8.55
-9.39
-10.30
-11.37
-12.61
-14.00
-15.54
-17.22
-18.93
-20.48
-21.54
-21.81
-21.14
-19.59
-17.44
-15.01
-12.57
-10.27
-8.14
-6.25
-4.65
-3.46
-2.76
-2.52
-2.61
-2.86
-3.12
-3.33
-3.45
-3.49
-3.44
-3.24
-2.91
-2.42
-1.81
-1.09
-0.22
0.85
2.18
3.78
5.57
7.41
9.14
10.62
11.79
12.71
13.51
14.44
15.75
17.67
20.27
23.54
27.28
31.28
35.28
39.08
42.50
45.39
47.61
49.06
49.64
49.34
48.28
46.65
44.71
42.71
40.81
39.06
37.42
35.78
34.02
32.05
29.82
27.32
24.58
21.67
18.63
15.54
12.38
9.08
5.51
1.56
-2.85
-7.60
-12.44
-16.96
-20.67
-23.21
-24.37
-24.23
-23.10
-21.42
-19.62
-18.02
-16.75
-15.82
-15.20
-14.86
-14.82
-15.11
-15.70
-16.48
-17.31
-18.03
-18.58
-18.96
-19.30
-19.73
-20.35
-21.18
-22.17
-23.18
-24.07
-24.76
-25.25
-25.61
-25.98
-26.42
-26.95
-27.53
-28.05
-28.45
-28.63
-28.50
-27.97
-26.92
-25.28
-23.02
-20.20
-16.97
-13.56
-10.21
-7.14
-4.49
-2.38
-0.79
0.32
1.02
1.34
1.32
1.08
0.87
1.03
1.89
3.63
6.13
8.99
11.63
13.58
14.68
15.08
15.07
14.86
14.45
13.68
12.37
10.34
7.72
5.00
2.78
1.45
0.95
0.82
0.42
-0.65
-2.52
-4.79
-6.50
-6.66
-4.66
-0.61
4.81
10.63
15.80
19.07
19.49
16.87
11.74
5.33
-0.76
-4.89
-5.81
-1.63
7.47
18.43
26.75
29.07
24.86
15.95
4.91
-5.77
-14.25
-19.90
-23.18
-23.72
-22.02
-18.96
-15.40
-11.97
-8.94
-6.39
-4.59
-3.85
-4.14
-5.27
-6.84
-8.45
-9.91
-11.19
-12.42
-13.84
-15.51
-17.07
-18.01
-17.82
-16.24
-13.46
-9.97
-6.42
-3.39
-1.20
0.20
1.09
1.75
2.40
3.02
3.46
3.56
3.18
2.34
1.18
-0.06
-1.16
-1.94
-2.33
-2.37
-2.17
-1.88
-1.65
-1.60
-1.78
-2.20
-2.79
-3.47
-4.17
-4.90
-5.70
-6.69
-7.91
-9.36
-10.88
-12.24
-13.13
-13.26
-12.42
-10.57
-7.78
-4.31
-0.51
3.23
6.58
9.31
11.33
12.67
13.42
13.70
13.61
13.22
12.62
11.89
11.09
10.30
9.55
8.85
8.20
7.57
6.90
6.16
5.30
4.28
3.11
1.83
0.52
-0.77
-1.98
-3.12
-4.22
-5.39
-6.71
-8.24
-9.97
-11.79
-13.45
-14.63
-14.98
-14.23
-12.26
-9.21
-5.41
-1.31
2.61
5.96
8.59
10.48
11.78
12.66
13.25
13.64
13.85
13.85
13.64
13.24
12.67
11.99
11.30
10.68
10.19
9.82
9.45
8.91
8.08
6.92
5.54
4.09
2.69
1.39
0.09
-1.26
-2.74
-4.41
-6.26
-8.33
-10.58
-12.88
-14.97
-16.49
-17.03
-16.33
-14.30
-11.16
-7.28
-3.14
0.82
4.26
6.99
9.00
10.36
11.20
11.65
11.79
11.71
11.46
11.11
10.75
10.38
10.01
9.62
9.19
8.75
8.36
8.06
7.81
7.55
7.16
6.55
5.70
4.65
3.47
2.25
1.06
-0.05
-1.05
-1.95
-2.83
-3.77
-4.88
-6.18
-7.51
-8.56
-9.00
-8.57
-7.16
-4.82
-1.79
1.61
5.03
8.22
11.00
13.28
15.04
16.33
17.28
18.00
18.58
18.99
19.22
19.20
18.78
17.73
15.90
13.27
9.93
6.06
1.82
-2.24
-5.70
-8.51
-11.02
-13.67
-16.72
-20.11
-23.56
-26.69
-28.40
-28.00
-25.63
-22.21
-18.87
-16.26
-14.50
-13.29
-12.21
-9.59
-4.16
4.30
14.81
26.00
36.85
46.88
56.07
64.63
74.52
87.33
103.26
120.90
138.19
153.47
165.88
175.13
171.12
148.35
108.99
62.61
19.44
-14.93
-39.81
-57.07
-68.97
-77.17
-80.87
-79.20
-72.54
-62.96
-53.04
-44.76
-39.09
-36.18
-35.67
-35.76
-34.97
-32.53
-29.49
-27.10
-26.01
-26.17
-27.21
-28.62
-29.12
-27.85
-24.83
-21.06
-17.58
-14.90
-12.89
-11.42
-10.37
-9.43
-8.48
-7.67
-7.28
-7.30
-6.89
-5.29
-2.75
-0.20
1.37
1.28
-0.58
-3.82
-7.66
-11.40
-14.78
-18.70
-24.06
-31.05
-39.00
-46.87
-53.92
-60.03
-65.56
-67.02
-62.73
-53.42
-41.80
-30.35
-20.26
-11.77
-4.73
0.90
5.14
7.24
6.82
4.32
0.93
-1.99
-3.44
-3.02
-1.52
0.99
3.72
6.04
7.82
9.30
10.80
12.42
14.09
15.63
17.06
18.08
18.52
18.43
17.95
17.15
15.95
14.41
12.54
10.53
8.39
6.16
3.94
1.84
-0.05
-1.62
-2.76
-3.35
-3.22
-2.39
-0.98
0.81
2.73
4.52
5.99
6.98
7.48
7.54
7.26
6.71
5.97
5.11
4.21
3.37
2.66
2.11
1.67
1.28
0.85
0.38
-0.11
-0.56
-0.97
-1.43
-2.03
-2.89
-3.97
-5.15
-6.23
-7.05
-7.60
-8.02
-8.52
-9.25
-10.17
-10.99
-11.26
-10.63
-9.00
-6.58
-3.83
-1.24
0.88
2.44
3.59
4.55
5.45
6.26
6.82
6.98
6.68
6.05
5.29
4.61
4.10
3.74
3.39
2.93
2.35
1.70
1.11
0.65
0.31
0.01
-0.35
-0.84
-1.52
-2.42
-3.55
-4.88
-6.31
-7.71
-8.90
-9.75
-10.19
-10.17
-9.64
-8.58
-7.03
-5.10
-3.01
-0.98
0.84
2.40
3.75
4.89
5.79
6.30
6.32
5.85
5.04
4.15
3.43
3.00
2.82
2.75
2.64
2.40
1.97
1.41
0.77
0.15
-0.43
-0.96
-1.47
-1.99
-2.57
-3.24
-4.02
-4.94
-6.03
-7.26
-8.47
-9.45
-9.92
-9.68
-8.64
-6.93
-4.79
-2.51
-0.33
1.61
3.24
4.49
5.29
5.59
5.45
4.98
4.40
3.90
3.57
3.38
3.21
2.97
2.62
2.20
1.78
1.37
0.95
0.42
-0.24
-1.00
-1.79
-2.48
-3.07
-3.64
-4.29
-5.18
-6.30
-7.52
-8.60
-9.25
-9.27
-8.62
-7.38
-5.74
-3.90
-2.00
-0.15
1.56
3.01
4.11
4.79
5.11
5.16
5.03
4.78
4.35
3.69
2.83
1.91
1.12
0.63
0.45
0.43
0.32
-0.07
-0.76
-1.61
-2.42
-3.09
-3.71
-4.51
-5.73
-7.43
-9.44
-11.36
-12.76
-13.28
-12.75
-11.23
-8.91
-6.08
-3.01
-0.02
2.63
4.73
6.20
7.03
7.31
7.17
6.71
6.04
5.28
4.55
3.95
3.50
3.11
2.59
1.76
0.57
-0.83
-2.16
-3.12
-3.57
-3.64
-3.65
-4.03
-5.06
-6.82
-9.06
-11.37
-13.23
-14.25
-14.23
-13.16
-11.22
-8.64
-5.65
-2.47
0.69
3.65
6.20
8.21
9.62
10.48
10.90
10.99
10.82
10.37
9.65
8.67
7.52
6.31
5.14
4.03
2.95
1.87
0.78
-0.29
-1.28
-2.16
-3.01
-3.93
-5.09
-6.58
-8.38
-10.31
-12.04
-13.20
-13.46
-12.65
-10.80
-8.11
-4.94
-1.59
1.71
4.86
7.81
10.53
12.92
14.83
16.08
16.58
16.31
15.39
14.01
12.47
11.03
9.90
9.16
8.73
8.43
8.02
7.35
6.36
5.14
3.80
2.42
1.05
-0.30
-1.61
-2.87
-4.09
-5.32
-6.72
-8.44
-10.51
-12.80
-14.99
-16.60
-17.18
-16.40
-14.18
-10.70
-6.38
-1.75
2.66
6.48
9.53
11.83
13.52
14.77
15.71
16.37
16.71
16.69
16.28
15.52
14.53
13.41
12.26
11.13
10.03
8.93
7.85
6.82
5.90
5.10
4.40
3.67
2.78
1.64
0.23
-1.40
-3.13
-4.89
-6.71
-8.71
-10.99
-13.54
-16.14
-18.31
-19.50
-19.23
-17.29
-13.90
-9.58
-4.98
-0.69
2.98
5.96
8.38
10.33
11.83
12.76
13.01
12.50
11.34
9.76
8.06
6.49
5.20
4.21
3.42
2.71
1.96
1.04
-0.12
-1.55
-3.23
-5.07
-6.95
-8.79
-10.55
-12.29
-14.17
-16.38
-19.07
-22.28
-25.86
-29.43
-32.41
-34.21
-34.33
-32.57
-29.07
-24.18
-18.31
-11.73
-4.42
3.76
12.93
22.88
33.06
42.63
50.74
56.79
60.53
62.03
61.55
59.43
56.13
52.18
48.19
44.71
42.02
40.02
38.28
36.17
33.14
28.86
23.27
16.48
8.71
0.32
-8.20
-16.25
-23.16
-28.36
-31.46
-32.39
-31.44
-29.23
-26.56
-24.18
-22.52
-21.48
-20.52
-18.93
-16.23
-12.42
-8.02
-3.75
-0.15
2.61
4.70
6.39
7.78
8.73
9.01
8.52
7.39
6.02
4.81
3.93
3.25
2.46
1.27
-0.43
-2.51
-4.68
-6.65
-8.20
-9.28
-9.94
-10.37
-10.78
-11.43
-12.54
-14.21
-16.28
-18.41
-20.23
-21.55
-22.44
-23.14
-23.94
-24.86
-25.65
-25.63
-24.11
-20.84
-16.14
-10.82
-5.74
-1.50
1.71
4.06
6.31
9.13
12.72
16.57
19.85
21.83
22.22
21.22
19.31
17.70
17.46
19.00
21.84
24.92
27.30
28.43
28.28
27.20
26.66
28.33
33.37
41.90
53.20
66.30
80.10
93.53
99.92
93.77
73.68
44.13
12.77
-13.84
-32.18
-41.82
-44.32
-42.49
-38.32
-33.02
-27.27
-21.70
-17.17
-14.21
-13.67
-15.82
-20.31
-25.50
-29.33
-30.30
-28.20
-23.98
-19.62
-17.36
-18.58
-23.51
-30.57
-37.37
-41.82
-43.10
-41.64
-38.57
-35.51
-32.51
-29.27
-25.32
-20.59
-15.60
-11.34
-8.66
-7.85
-8.41
-9.20
-9.20
-7.77
-4.94
-1.29
2.36
5.31
7.18
8.18
8.65
8.85
8.96
9.00
8.97
8.80
8.41
7.73
6.68
5.25
3.47
1.46
-0.58
-2.41
-3.86
-4.85
-5.43
-5.66
-5.65
-5.50
-5.30
-5.13
-5.04
-5.06
-5.19
-5.42
-5.84
-6.56
-7.71
-9.30
-11.20
-13.08
-14.51
-15.15
-14.84
-13.65
-11.88
-9.89
-8.00
-6.39
-5.01
-3.69
-2.11
0.03
2.85
6.23
9.82
13.18
15.92
17.93
19.30
20.32
21.21
21.98
22.43
22.14
20.75
18.01
13.97
8.94
3.40
-2.05
-6.92
-10.88
-13.85
-15.98
-17.58
-18.97
-20.34
-21.67
-22.75
-23.30
-23.12
-22.12
-20.36
-17.98
-15.09
-11.78
-8.11
-4.23
-0.36
3.18
6.06
8.05
9.09
9.29
8.94
8.39
7.99
7.95
8.33
8.97
9.58
9.86
9.62
8.88
7.79
6.64
5.63
4.86
4.26
3.68
2.95
1.99
0.83
-0.47
-1.78
-3.00
-4.01
-4.67
-4.82
-4.33
-3.14
-1.37
0.72
2.79
4.53
5.80
6.66
7.30
7.91
8.57
9.18
9.55
9.52
9.04
8.23
7.29
6.41
5.69
5.10
4.62
4.18
3.75
3.24
2.48
1.29
-0.45
-2.69
-5.23
-7.75
-10.04
-12.06
-13.92
-15.81
-17.72
-19.50
-20.80
-21.28
-20.79
-19.41
-17.40
-15.13
-12.90
-10.89
-9.12
-7.51
-5.95
-4.40
-2.91
-1.61
-0.65
-0.13
-0.03
-0.23
-0.52
-0.76
-0.88
-0.91
-0.94
-0.99
-1.08
-1.11
-1.01
-0.79
-0.52
-0.31
-0.29
-0.50
-0.92
-1.54
-2.35
-3.37
-4.58
-5.82
-6.84
-7.33
-7.08
-6.07
-4.50
-2.69
-0.93
0.64
2.01
3.27
4.46
5.52
6.31
6.65
6.49
5.89
4.99
4.02
3.12
2.36
1.73
1.18
0.63
0.06
-0.52
-1.07
-1.57
-2.02
-2.49
-3.03
-3.65
-4.39
-5.28
-6.39
-7.85
-9.70
-11.88
-14.14
-16.13
-17.43
-17.74
-16.92
-15.07
-12.43
-9.30
-5.96
-2.61
0.56
3.40
5.79
7.64
8.96
9.87
10.57
11.24
11.98
12.71
13.24
13.36
12.99
12.25
11.40
10.73
10.38
10.29
10.29
10.17
9.81
9.24
8.49
7.63
6.68
5.64
4.59
3.68
3.07
2.94
3.36
4.34
5.79
7.55
9.41
11.13
12.47
13.29
13.55
13.33
12.73
11.88
10.87
9.72
8.50
7.28
6.12
5.08
4.13
3.24
2.34
1.44
0.55
-0.31
-1.14
-1.96
-2.82
-3.73
-4.66
-5.54
-6.31
-6.92
-7.33
-7.49
-7.36
-6.84
-5.86
-4.39
-2.48
-0.30
1.94
3.98
5.69
6.99
7.92
8.56
8.99
9.21
9.25
9.06
8.68
8.12
7.42
6.59
5.67
4.71
3.77
2.91
2.15
1.42
0.60
-0.41
-1.67
-3.14
-4.74
-6.36
-7.92
-9.36
-10.59
-11.54
-12.15
-12.39
-12.33
-12.05
-11.60
-10.95
-9.97
-8.52
-6.57
-4.26
-1.81
0.53
2.63
4.44
5.99
7.27
8.21
8.70
8.69
8.24
7.51
6.74
6.07
5.52
5.01
4.42
3.68
2.76
1.68
0.45
-1.00
-2.78
-4.99
-7.66
-10.69
-13.82
-16.69
-18.98
-20.42
-20.94
-20.58
-19.43
-17.59
-15.11
-11.98
-8.16
-3.73
1.13
6.11
10.83
14.95
18.25
20.68
22.41
23.66
24.59
25.20
25.31
24.76
23.52
21.77
19.85
18.27
17.44
17.44
18.06
18.84
19.33
19.16
18.21
16.60
14.96
14.00
14.14
15.25
16.81
18.11
18.67
18.31
17.24
16.53
17.20
19.66
23.38
27.28
30.29
31.76
31.57
29.98
28.55
28.75
31.24
35.43
40.01
43.66
45.56
45.53
43.98
43.05
45.01
51.23
61.62
75.00
90.00
105.27
119.45
122.93
108.85
76.56
33.30
-10.25
-45.82
-69.79
-82.56
-86.93
-86.55
-83.26
-77.88
-70.83
-63.02
-55.72
-49.99
-46.40
-44.88
-44.80
-44.32
-41.83
-36.74
-29.93
-23.06
-17.71
-14.78
-14.41
-16.18
-18.73
-20.83
-21.17
-19.71
-17.18
-14.51
-12.48
-11.45
-11.41
-11.71
-11.58
-10.51
-8.58
-6.27
-4.19
-2.83
-2.45
-3.06
-4.33
-5.83
-7.14
-8.12
-8.81
-9.33
-9.84
-10.40
-10.97
-11.46
-11.75
-11.76
-11.58
-11.39
-11.38
-11.67
-12.30
-13.18
-14.18
-15.15
-15.94
-16.48
-16.66
-16.46
-15.85
-14.87
-13.60
-12.12
-10.52
-8.90
-7.37
-6.08
-5.17
-4.71
-4.70
-5.01
-5.50
-6.02
-6.50
-6.94
-7.35
-7.70
-7.94
-8.02
-7.91
-7.62
-7.17
-6.63
-6.04
-5.46
-4.97
-4.72
-4.84
-5.38
-6.26
-7.22
-7.94
-8.09
-7.52
-6.26
-4.54
-2.71
-1.10
0.06
0.66
0.77
0.52
0.11
-0.27
-0.50
-0.50
-0.27
0.18
0.79
1.50
2.20
2.76
3.02
2.90
2.41
1.66
0.86
0.21
-0.18
-0.30
-0.28
-0.29
-0.42
-0.71
-1.04
-1.26
-1.22
-0.84
-0.08
1.00
2.36
3.96
5.70
7.46
9.05
10.26
10.98
11.18
11.00
10.62
10.20
9.79
9.37
8.90
8.36
7.83
7.42
7.25
7.33
7.59
7.86
7.94
7.67
6.95
5.79
4.28
2.58
0.86
-0.71
-2.09
-3.22
-4.11
-4.74
-5.04
-4.93
-4.37
-3.46
-2.38
-1.37
-0.64
-0.32
-0.42
-0.82
-1.37
-1.94
-2.41
-2.81
-3.19
-3.62
-4.14
-4.71
-5.28
-5.77
-6.19
-6.65
-7.29
-8.24
-9.53
-11.12
-12.88
-14.66
-16.36
-17.91
-19.29
-20.54
-21.72
-22.91
-24.13
-25.31
-26.22
-26.55
-25.98
-24.33
-21.72
-18.46
-15.02
-11.80
-8.96
-6.46
-4.09
-1.61
1.12
4.14
7.39
10.71
13.75
15.99
16.77
15.59
12.46
8.12
3.86
1.06
0.59
2.37
5.47
8.57
10.59
11.07
10.22
8.63
6.85
5.19
3.64
2.11
0.47
-1.33
-3.28
-5.34
-7.43
-9.44
-11.24
-12.72
-13.89
-14.82
-15.61
-16.31
-16.88
-17.29
-17.58
-17.96
-18.70
-19.95
-21.59
-23.19
-24.11
-23.84
-22.20
-19.38
-15.79
-11.81
-7.60
-3.19
1.43
6.04
10.29
13.81
16.45
18.33
19.59
20.24
20.01
18.65
16.21
13.35
11.16
10.63
12.04
14.69
17.18
18.10
16.68
13.10
8.24
3.12
-1.55
-5.55
-8.99
-11.94
-14.34
-16.00
-16.80
-16.87
-16.56
-16.36
-16.67
-17.69
-19.39
-21.51
-23.66
-25.35
-26.17
-25.88
-24.50
-22.28
-19.56
-16.62
-13.54
-10.25
-6.67
-2.84
0.93
4.24
6.67
8.02
8.36
8.03
7.44
6.94
6.70
6.72
6.86
6.92
6.74
6.27
5.58
4.77
3.97
3.21
2.45
1.63
0.65
-0.51
-1.83
-3.20
-4.49
-5.52
-6.13
-6.19
-5.57
-4.24
-2.23
0.42
3.57
7.05
10.60
13.91
16.64
18.50
19.34
19.21
18.32
16.99
15.54
14.18
12.99
11.96
10.99
9.97
8.88
7.74
6.62
5.59
4.56
3.37
1.80
-0.26
-2.77
-5.48
-8.01
-9.96
-10.96
-11.05
-10.34
-8.96
-7.07
-4.74
-2.02
1.02
4.30
7.91
11.39
14.59
17.39
19.77
21.84
23.89
26.35
29.70
34.70
41.05
48.39
55.87
62.25
66.12
66.35
62.47
54.88
45.44
35.54
27.09
21.41
18.81
18.59
19.49
20.23
16.91
13.30
9.06
4.60
0.13
-4.25
-8.41
-12.07
-14.80
-16.24
-15.87
-14.64
-13.22
-12.28
-12.13
-12.65
-13.40
-13.90
-13.92
-13.15
-12.36
-11.92
-12.10
-12.92
-14.22
-15.76
-17.31
-18.73
-19.75
-20.64
-21.46
-22.26
-23.03
-23.67
-24.00
-23.79
-22.80
-20.79
-17.89
-14.28
-10.28
-6.24
-2.49
0.71
3.21
4.98
6.12
6.70
6.90
6.83
6.56
6.08
5.38
4.45
3.35
2.21
1.15
0.25
-0.46
-1.03
-1.54
-2.07
-2.69
-3.44
-4.39
-5.57
-6.99
-8.60
-10.28
-11.83
-12.98
-13.52
-13.31
-12.36
-10.81
-8.89
-6.80
-4.69
-2.65
-0.69
1.19
2.96
4.63
6.14
7.43
8.42
9.04
9.24
9.07
8.62
8.04
7.43
6.81
6.15
5.37
4.47
3.53
2.63
1.86
1.18
0.48
-0.41
-1.59
-3.06
-4.67
-6.17
-7.24
-7.63
-7.20
-5.95
-4.06
-1.74
0.78
3.36
5.92
8.39
10.69
12.69
14.23
15.18
15.54
15.41
14.97
14.39
13.75
13.02
12.11
10.91
9.38
7.57
5.60
3.65
1.90
0.50
-0.55
-1.33
-1.98
-2.67
-3.51
-4.45
-5.35
-6.03
-6.36
-6.31
-5.90
-5.23
-4.43
-3.68
-3.06
-2.65
-2.52
-2.82
-3.67
-5.14
-7.15
-9.57
-12.17
-14.55
-16.35
-17.39
-17.79
-17.80
-17.66
-17.42
-17.04
-16.52
-15.64
-14.25
-12.37
-10.26
-8.24
-6.50
-5.03
-3.68
-2.25
-0.14
3.39
8.85
16.28
25.40
35.75
46.86
58.20
66.77
69.57
65.20
54.96
41.84
28.73
17.54
9.14
3.69
0.80
0.12
1.17
3.41
5.82
7.38
7.44
5.86
2.99
-0.60
-4.01
-6.43
-7.53
-7.64
-7.54
-7.76
-8.76
-10.66
-13.13
-15.26
-15.99
-14.66
-11.38
-6.97
-2.56
0.81
2.67
3.12
2.79
2.47
2.75
3.89
5.91
8.63
11.70
14.64
16.89
18.03
17.86
16.54
14.49
12.17
9.95
7.93
6.07
4.27
2.50
0.74
-1.01
-2.89
-5.10
-7.80
-10.96
-14.29
-17.33
-19.60
-20.82
-21.02
-20.44
-19.48
-18.44
-17.51
-16.75
-16.12
-15.59
-15.19
-14.94
-14.82
-14.81
-14.81
-14.73
-14.55
-14.30
-14.04
-13.82
-13.64
-13.43
-13.10
-12.61
-12.00
-11.38
-10.88
-10.63
-10.65
-10.87
-11.12
-11.19
-10.90
-10.14
-8.88
-7.23
-5.38
-3.55
-1.92
-0.56
0.54
1.43
2.16
2.74
3.14
3.35
3.36
3.19
2.84
2.32
1.62
0.82
0.01
-0.68
-1.20
-1.54
-1.82
-2.14
-2.59
-3.21
-4.01
-4.93
-5.92
-6.81
-7.42
-7.56
-7.11
-6.11
-4.72
-3.17
-1.66
-0.32
0.81
1.71
2.40
2.89
3.18
3.33
3.36
3.29
3.09
2.76
2.30
1.75
1.16
0.61
0.12
-0.33
-0.77
-1.29
-1.95
-2.77
-3.72
-4.69
-5.57
-6.22
-6.57
-6.62
-6.40
-5.94
-5.21
-4.17
-2.81
-1.19
0.53
2.10
3.28
3.98
4.25
4.24
4.13
4.00
3.83
3.55
3.11
2.55
1.93
1.32
0.72
0.09
-0.61
-1.33
-1.96
-2.41
-2.66
-2.83
-3.09
-3.59
-4.34
-5.20
-5.96
-6.41
-6.43
-5.95
-4.97
-3.54
-1.76
0.16
1.97
3.45
4.43
4.89
4.93
4.70
4.31
3.84
3.29
2.68
2.06
1.49
1.01
0.59
0.20
-0.21
-0.64
-1.05
-1.43
-1.82
-2.28
-2.91
-3.76
-4.74
-5.72
-6.47
-6.80
-6.59
-5.79
-4.46
-2.71
-0.73
1.26
3.01
4.37
5.29
5.82
6.06
6.12
6.04
5.79
5.39
4.87
4.30
3.76
3.28
2.85
2.43
2.02
1.61
1.23
0.84
0.35
-0.30
-1.16
-2.16
-3.20
-4.13
-4.81
-5.16
-5.06
-4.45
-3.32
-1.76
0.01
1.72
3.19
4.33
5.20
5.92
6.56
7.11
7.48
7.57
7.36
6.92
6.33
5.67
4.95
4.15
3.28
2.38
1.61
1.03
0.66
0.39
0.06
-0.47
-1.21
-2.09
-2.95
-3.66
-4.10
-4.22
-3.94
-3.20
-2.00
-0.44
1.26
2.83
4.06
4.87
5.29
5.46
5.47
5.40
5.29
5.16
5.07
5.04
5.04
4.96
4.72
4.27
3.67
3.07
2.61
2.38
2.37
2.49
2.62
2.60
2.27
1.56
0.43
-1.01
-2.52
-3.79
-4.52
-4.50
-3.68
-2.21
-0.37
1.52
3.20
4.52
5.44
6.01
6.32
6.43
6.34
6.04
5.51
4.77
3.92
3.06
2.26
1.55
0.92
0.36
-0.14
-0.57
-0.95
-1.29
-1.64
-2.01
-2.42
-2.86
-3.30
-3.71
-4.03
-4.18
-4.06
-3.62
-2.87
-1.88
-0.78
0.32
1.36
2.36
3.32
4.21
4.93
5.37
5.41
5.09
4.53
3.88
3.29
2.78
2.31
1.83
1.32
0.87
0.58
0.51
0.64
0.81
0.85
0.63
0.17
-0.40
-0.89
-1.20
-1.27
-1.15
-0.91
-0.61
-0.27
0.16
0.72
1.45
2.36
3.36
4.31
5.06
5.44
5.42
5.02
4.38
3.64
2.89
2.14
1.40
0.71
0.19
-0.04
0.09
0.54
1.13
1.63
1.85
1.68
1.13
0.29
-0.68
-1.64
-2.47
-3.05
-3.28
-3.09
-2.50
-1.59
-0.56
0.37
1.01
1.29
1.30
1.18
1.13
1.20
1.39
1.55
1.59
1.46
1.21
0.97
0.83
0.84
0.96
1.08
1.08
0.83
0.31
-0.43
-1.29
-2.13
-2.86
-3.44
-3.88
-4.20
-4.37
-4.36
-4.13
-3.68
-3.11
-2.58
-2.20
-2.02
-1.96
-1.87
-1.61
-1.15
-0.55
0.03
0.42
0.53
0.35
-0.06
-0.58
-1.10
-1.54
-1.83
-1.91
-1.81
-1.58
-1.33
-1.17
-1.18
-1.37
-1.68
-1.99
-2.16
-2.04
-1.55
-0.71
0.34
1.43
2.35
3.02
3.47
3.86
4.29
4.79
5.28
5.59
5.58
5.23
4.59
3.81
2.98
2.17
1.41
0.75
0.23
-0.12
-0.30
-0.40
-0.56
-0.92
-1.56
-2.44
-3.37
-4.08
-4.32
-3.95
-3.01
-1.67
-0.16
1.32
2.65
3.77
4.61
5.16
5.39
5.32
5.02
4.60
4.15
3.77
3.47
3.27
3.12
3.01
2.85
2.58
2.16
1.57
0.87
0.16
-0.50
-1.08
-1.58
-2.00
-2.30
-2.42
-2.31
-1.97
-1.45
-0.82
-0.17
0.44
0.98
1.40
1.71
1.87
1.90
1.80
1.63
1.40
1.11
0.76
0.31
-0.27
-0.96
-1.73
-2.52
-3.29
-4.00
-4.60
-5.06
-5.35
-5.45
-5.41
-5.33
-5.33
-5.53
-5.93
-6.43
-6.83
-6.95
-6.67
-6.03
-5.13
-4.14
-3.20
-2.38
-1.72
-1.25
-1.00
-1.04
-1.39
-2.01
-2.81
-3.61
-4.21
-4.50
-4.45
-4.16
-3.80
-3.55
-3.52
-3.76
-4.22
-4.85
-5.54
-6.21
-6.72
-6.98
-6.91
-6.53
-5.91
-5.16
-4.37
-3.53
-2.57
-1.44
-0.13
1.23
2.43
3.32
3.84
4.06
4.13
4.16
4.13
4.00
3.67
3.13
2.48
1.83
1.30
0.93
0.64
0.31
-0.15
-0.78
-1.54
-2.35
-3.07
-3.57
-3.75
-3.57
-3.00
-2.07
-0.85
0.61
2.21
3.82
5.34
6.64
7.67
8.42
8.91
9.13
9.03
8.58
7.77
6.69
5.47
4.28
3.27
2.51
2.01
1.71
1.52
1.31
0.98
0.46
-0.27
-1.17
-2.13
-2.96
-3.49
-3.53
-3.01
-1.94
-0.46
1.18
2.75
4.03
4.90
5.42
5.69
5.85
5.97
6.01
5.86
5.40
4.60
3.55
2.45
1.52
0.93
0.72
0.81
1.08
1.42
1.71
1.86
1.79
1.39
0.63
-0.48
-1.78
-3.06
-4.01
-4.37
-4.01
-2.95
-1.42
0.28
1.78
2.86
3.42
3.53
3.35
3.06
2.73
2.39
1.98
1.50
0.98
0.47
0.02
-0.39
-0.82
-1.34
-1.94
-2.54
-3.05
-3.42
-3.75
-4.18
-4.85
-5.82
-6.94
-7.98
-8.67
-8.83
-8.41
-7.45
-6.04
-4.29
-2.35
-0.41
1.32
2.67
3.54
3.99
4.12
4.10
4.01
3.87
3.63
3.22
2.60
1.79
0.88
-0.03
-0.83
-1.44
-1.79
-1.90
-1.81
-1.66
-1.58
-1.72
-2.14
-2.78
-3.48
-4.03
-4.20
-3.86
-3.00
-1.73
-0.22
1.35
2.80
4.04
4.98
5.58
5.80
5.64
5.17
4.49
3.73
3.07
2.62
2.43
2.45
2.56
2.60
2.49
2.21
1.86
1.54
1.28
1.00
0.49
-0.42
-1.72
-3.16
-4.34
-4.83
-4.39
-3.13
-1.41
0.30
1.65
2.56
3.19
3.81
4.61
5.55
6.43
6.98
7.04
6.63
5.90
5.01
4.09
3.18
2.29
1.41
0.57
-0.18
-0.82
-1.38
-1.86
-2.32
-2.78
-3.27
-3.83
-4.40
-4.84
-4.98
-4.62
-3.72
-2.43
-1.02
0.21
1.07
1.58
1.90
2.19
2.54
2.89
3.11
3.09
2.88
2.61
2.44
2.47
2.63
2.74
2.61
2.15
1.41
0.56
-0.23
-0.91
-1.49
-2.10
-2.82
-3.60
-4.35
-4.88
-5.08
-4.95
-4.52
-3.89
-3.15
-2.33
-1.49
-0.64
0.16
0.87
1.46
1.94
2.33
2.68
3.04
3.40
3.72
3.93
4.02
3.98
3.85
3.66
3.41
3.06
2.59
2.05
1.54
1.16
0.94
0.77
0.51
0.03
-0.65
-1.42
-2.09
-2.52
-2.65
-2.50
-2.14
-1.63
-1.02
-0.31
0.52
1.43
2.40
3.32
4.08
4.59
4.79
4.71
4.47
4.18
3.90
3.64
3.36
3.05
2.75
2.53
2.43
2.46
2.52
2.51
2.40
2.16
1.83
1.37
0.73
-0.15
-1.22
-2.36
-3.34
-3.94
-4.03
-3.63
-2.85
-1.87
-0.82
0.17
1.03
1.69
2.11
2.27
2.21
1.98
1.65
1.26
0.82
0.30
-0.28
-0.90
-1.54
-2.18
-2.83
-3.52
-4.20
-4.82
-5.29
-5.55
-5.65
-5.71
-5.87
-6.19
-6.63
-6.98
-7.00
-6.52
-5.51
-4.13
-2.59
-1.12
0.12
0.99
1.44
1.48
1.18
0.71
0.24
-0.06
-0.15
-0.08
0.03
0.05
-0.08
-0.37
-0.78
-1.28
-1.81
-2.32
-2.76
-3.12
-3.48
-3.98
-4.76
-5.88
-7.21
-8.48
-9.42
-9.82
-9.65
-9.05
-8.22
-7.35
-6.55
-5.81
-5.13
-4.49
-4.00
-3.82
-4.02
-4.57
-5.32
-6.03
-6.50
-6.67
-6.62
-6.48
-6.33
-6.08
-5.58
-4.73
-3.64
-2.58
-1.86
-1.70
-2.11
-3.00
-4.10
-5.22
-6.25
-7.18
-7.92
-8.39
-8.52
-8.34
-7.99
-7.41
-6.48
-5.09
-3.22
-0.88
1.87
4.84
7.73
10.20
12.41
14.52
16.48
18.02
18.91
19.18
19.05
18.78
18.53
19.01
20.56
22.90
25.20
26.77
27.43
27.51
27.65
28.54
31.69
38.06
47.48
58.62
69.81
79.59
86.99
91.55
87.83
73.50
51.06
26.85
6.65
-6.97
-14.38
-17.33
-17.84
-17.57
-16.70
-15.32
-13.32
-11.58
-10.65
-10.49
-10.73
-10.99
-11.16
-10.64
-9.60
-8.72
-8.91
-10.61
-13.46
-16.74
-19.71
-21.81
-22.36
-21.72
-20.77
-20.46
-21.20
-22.87
-25.14
-27.55
-29.71
-31.24
-32.95
-35.99
-41.21
-48.62
-57.65
-67.56
-77.68
-87.45
-91.41
-86.16
-72.04
-52.88
-32.95
-15.10
-0.74
9.51
15.70
18.44
18.11
15.50
11.33
7.21
4.43
3.60
4.68
7.36
11.18
15.00
17.79
19.01
18.81
17.49
15.72
13.90
12.42
11.56
11.03
10.39
9.33
7.90
6.35
5.05
4.37
4.67
6.12
8.54
11.56
14.84
18.18
21.39
24.17
26.24
27.47
27.92
27.83
27.50
27.17
26.87
26.40
25.37
23.44
20.51
16.70
12.28
7.66
3.25
-0.54
-3.47
-5.61
-7.27
-8.88
-10.92
-13.70
-17.24
-21.31
-25.54
-29.64
-33.55
-37.21
-40.54
-43.45
-45.88
-47.81
-49.19
-49.90
-49.74
-48.51
-45.80
-41.13
-34.30
-25.58
-15.69
-5.71
3.30
11.42
18.00
22.47
24.88
25.87
26.18
26.38
26.79
27.54
28.70
30.03
31.34
32.51
33.46
34.18
34.59
34.57
33.84
32.11
29.10
24.95
20.19
15.45
11.24
7.82
5.22
3.40
2.35
2.03
2.48
3.66
5.40
7.37
9.19
10.58
11.42
11.79
11.79
11.58
11.23
10.70
9.87
8.64
7.02
5.18
3.39
1.88
0.80
0.14
-0.28
-0.67
-1.26
-2.14
-3.26
-4.49
-5.69
-6.80
-7.87
-8.95
-9.99
-10.82
-11.16
-10.80
-9.68
-7.99
-6.06
-4.20
-2.59
-1.27
-0.20
0.69
1.39
1.85
2.04
1.94
1.60
1.08
0.44
-0.23
-0.87
-1.41
-1.88
-2.33
-2.88
-3.56
-4.37
-5.23
-6.11
-7.01
-8.02
-9.19
-10.42
-11.47
-12.05
-11.97
-11.27
-10.15
-8.90
-7.73
-6.71
-5.77
-4.82
-3.86
-2.96
-2.22
-1.74
-1.57
-1.67
-2.03
-2.61
-3.35
-4.19
-5.01
-5.66
-6.05
-6.15
-6.05
-5.90
-5.88
-6.10
-6.56
-7.14
-7.71
-8.14
-8.34
-8.30
-7.99
-7.42
-6.58
-5.51
-4.32
-3.17
-2.17
-1.36
-0.66
0.05
0.87
1.80
2.75
3.53
4.00
4.04
3.64
2.89
1.92
0.89
-0.01
-0.72
-1.21
-1.59
-1.99
-2.54
-3.23
-4.03
-4.86
-5.66
-6.47
-7.32
-8.15
-8.83
-9.11
-8.81
-7.83
-6.30
-4.45
-2.54
-0.75
0.88
2.42
3.91
5.30
6.41
7.05
7.10
6.62
5.83
5.02
4.40
4.00
3.69
3.31
2.76
2.05
1.32
0.67
0.16
-0.28
-0.73
-1.25
-1.88
-2.60
-3.36
-4.06
-4.57
-4.72
-4.36
-3.47
-2.11
-0.49
1.19
2.76
4.11
5.20
5.99
6.45
6.52
6.19
5.44
4.34
2.96
1.41
-0.17
-1.64
-2.90
-3.88
-4.62
-5.18
-5.71
-6.31
-7.09
-8.12
-9.44
-11.00
-12.73
-14.43
-15.92
-16.99
-17.50
-17.42
-16.78
-15.68
-14.23
-12.59
-10.89
-9.30
-7.92
-6.83
-6.05
-5.55
-5.28
-5.23
-5.44
-5.96
-6.82
-7.98
-9.31
-10.66
-11.89
-12.95
-13.90
-14.84
-15.88
-17.11
-18.53
-20.13
-21.89
-23.79
-25.81
-27.91
-29.99
-31.92
-33.59
-34.89
-35.73
-36.01
-35.62
-34.40
-32.27
-29.28
-25.60
-21.51
-17.28
-13.03
-8.81
-4.54
-0.18
4.19
8.42
12.29
15.67
18.44
20.56
21.93
22.46
22.07
20.85
19.08
17.19
15.64
14.64
14.16
13.90
13.48
12.71
11.65
10.65
10.16
10.51
11.78
13.84
16.43
19.31
22.32
25.43
28.59
31.74
34.70
37.26
39.22
40.45
40.93
40.75
40.06
39.01
37.65
35.98
33.93
31.50
28.80
26.09
23.67
21.74
20.32
19.24
18.19
16.98
15.56
14.07
12.81
12.03
11.87
12.35
13.33
14.65
16.08
17.49
18.78
19.91
20.91
21.79
22.55
23.17
23.56
23.74
23.74
23.66
23.60
23.62
23.70
23.74
23.59
23.13
22.30
21.08
19.50
17.63
15.60
13.49
11.41
9.36
7.32
5.22
3.07
0.98
-0.89
-2.33
-3.24
-3.59
-3.52
-3.20
-2.75
-2.26
-1.76
-1.26
-0.84
-0.66
-0.92
-1.80
-3.42
-5.76
-8.68
-11.94
-15.28
-18.47
-21.34
-23.83
-25.94
-27.69
-29.10
-30.21
-31.02
-31.50
-31.62
-31.36
-30.71
-29.73
-28.53
-27.19
-25.78
-24.29
-22.69
-20.94
-19.06
-17.14
-15.29
-13.61
-12.15
-10.91
-9.93
-9.23
-8.90
-8.98
-9.47
-10.25
-11.11
-11.80
-12.09
-11.85
-11.08
-9.93
-8.57
-7.20
-5.93
-4.87
-4.09
-3.67
-3.60
-3.77
-3.94
-3.75
-2.87
-1.15
1.26
3.98
6.52
8.44
9.52
9.80
9.46
8.67
7.58
6.25
4.70
3.02
1.31
-0.30
-1.75
-3.06
-4.25
-5.35
-6.31
-7.03
-7.46
-7.61
-7.59
-7.56
-7.66
-7.96
-8.49
-9.18
-9.93
-10.61
-11.04
-11.03
-10.43
-9.15
-7.26
-4.91
-2.29
0.38
2.95
5.30
7.37
9.12
10.53
11.64
12.48
13.08
13.39
13.29
12.66
11.43
9.64
7.48
5.26
3.25
1.62
0.39
-0.59
-1.52
-2.62
-3.99
-5.64
-7.39
-9.01
-10.23
-10.88
-10.85
-10.20
-9.05
-7.57
-5.97
-4.48
-3.31
-2.65
-2.55
-2.91
-3.47
-3.96
-4.17
-4.14
-4.06
-4.22
-4.80
-5.83
-7.13
-8.45
-9.54
-10.24
-10.55
-10.55
-10.46
-10.51
-10.97
-12.02
-13.60
-15.40
-16.81
-17.17
-16.06
-13.52
-10.23
-7.26
-5.60
-5.55
-6.36
-6.34
-3.37
4.24
17.09
34.36
53.98
73.11
88.77
98.53
100.95
95.87
84.46
68.87
51.72
35.42
21.59
10.83
2.80
-3.34
-8.47
-13.22
-17.86
-22.45
-26.96
-31.38
-35.66
-39.56
-42.61
-44.20
-43.89
-41.73
-38.35
-34.82
-32.17
-30.91
-30.87
-31.35
-31.64
-31.40
-30.92
-30.81
-31.61
-33.40
-35.75
-37.93
-39.28
-39.55
-38.88
-37.68
-36.37
-35.18
-34.16
-33.22
-32.33
-31.52
-30.83
-30.19
-29.33
-27.81
-25.21
-21.32
-16.31
-10.67
-5.05
0.00
4.21
7.58
10.28
12.43
14.06
15.11
15.57
15.53
15.16
14.66
14.12
13.51
12.78
11.92
11.06
10.36
9.96
9.81
9.66
9.16
8.00
6.07
3.60
1.08
-0.84
-1.56
-0.64
1.98
6.11
11.28
16.94
22.58
27.81
32.37
36.13
39.03
41.08
42.33
42.88
42.83
42.30
41.38
40.13
38.58
36.77
34.75
32.57
30.31
28.03
25.77
23.46
20.97
18.09
14.63
10.55
6.04
1.59
-2.18
-4.71
-5.68
-5.10
-3.25
-0.53
2.66
5.98
9.16
11.91
14.00
15.19
15.41
14.68
13.13
10.94
8.31
5.46
2.61
-0.03
-2.37
-4.38
-6.13
-7.70
-9.10
-10.30
-11.30
-12.17
-13.14
-14.42
-16.09
-17.96
-19.52
-20.16
-19.38
-17.05
-13.46
-9.19
-4.87
-0.95
2.35
5.00
7.04
8.45
9.14
9.03
8.12
6.53
4.49
2.22
-0.10
-2.38
-4.57
-6.60
-8.39
-9.86
-10.94
-11.63
-12.01
-12.24
-12.52
-13.04
-13.81
-14.68
-15.26
-15.08
-13.67
-10.84
-6.66
-1.53
3.98
9.24
13.79
17.39
20.01
21.82
23.03
23.84
24.39
24.68
24.66
24.14
22.87
20.60
17.18
12.73
7.75
3.06
-0.44
-2.09
-1.77
0.06
2.47
4.50
5.49
5.27
4.08
2.48
1.03
0.16
0.15
1.08
2.91
5.42
8.24
10.95
13.21
14.84
15.78
16.09
15.86
15.24
14.38
13.45
12.58
11.91
11.39
10.82
9.89
8.31
6.01
2.99
-0.65
-4.80
-9.14
-13.32
-17.11
-20.35
-22.98
-24.83
-25.78
-25.77
-24.73
-22.33
-18.52
-13.71
-8.68
-4.32
-0.96
1.44
3.19
4.68
6.69
9.51
12.67
15.26
16.27
15.69
14.04
12.12
10.88
11.73
15.47
21.75
29.29
36.20
41.32
43.89
43.63
36.78
22.73
4.67
-12.35
-23.14
-28.83
-31.25
-31.75
-31.57
-31.25
-30.40
-28.80
-26.75
-24.92
-24.02
-23.81
-23.87
-23.88
-23.68
-22.84
-21.28
-19.44
-17.94
-17.46
-17.84
-18.70
-19.73
-20.68
-21.17
-21.06
-20.58
-20.13
-20.25
-20.98
-22.25
-23.88
-25.57
-26.76
-26.90
-25.70
-23.16
-19.53
-15.07
-10.10
-5.00
-0.16
4.13
7.60
10.04
11.38
11.71
11.34
10.64
9.89
9.27
8.82
8.46
8.07
7.55
6.84
5.92
4.84
3.70
2.59
1.55
0.59
-0.40
-1.54
-2.95
-4.69
-6.70
-8.77
-10.55
-11.57
-11.43
-9.91
-7.08
-3.30
0.86
4.85
8.28
10.99
13.04
14.54
15.56
16.09
16.12
15.65
14.80
13.70
12.49
11.20
9.85
8.45
7.05
5.73
4.57
3.62
2.79
1.97
1.02
-0.15
-1.63
-3.46
-5.64
-8.09
-10.53
-12.57
-13.75
-13.68
-12.20
-9.46
-5.82
-1.72
2.44
6.34
9.77
12.54
14.45
15.39
15.36
14.55
13.29
11.92
10.67
9.62
8.70
7.79
6.82
5.75
4.59
3.39
2.20
1.10
0.18
-0.50
-1.01
-1.52
-2.29
-3.57
-5.41
-7.58
-9.58
-10.88
-11.03
-9.92
-7.68
-4.68
-1.30
2.15
5.48
8.54
11.18
13.22
14.49
14.90
14.50
13.48
12.11
10.69
9.42
8.39
7.56
6.78
5.91
4.88
3.74
2.64
1.76
1.18
0.83
0.53
0.05
-0.77
-1.95
-3.40
-4.95
-6.39
-7.49
-7.99
-7.69
-6.47
-4.40
-1.76
1.04
3.62
5.73
7.32
8.48
9.28
9.71
9.69
9.16
8.18
6.98
5.80
4.81
4.02
3.28
2.43
1.41
0.34
-0.61
-1.26
-1.61
-1.76
-1.90
-2.19
-2.70
-3.44
-4.41
-5.52
-6.64
-7.57
-8.04
-7.85
-6.92
-5.31
-3.24
-0.97
1.24
3.19
4.75
5.84
6.44
6.56
6.25
5.59
4.70
3.73
2.82
2.08
1.58
1.26
1.03
0.78
0.44
-0.00
-0.52
-1.09
-1.76
-2.55
-3.54
-4.71
-6.01
-7.30
-8.43
-9.17
-9.34
-8.81
-7.56
-5.72
-3.47
-1.04
1.37
3.58
5.42
6.70
7.29
7.14
6.39
5.26
4.03
2.92
1.98
1.17
0.43
-0.28
-0.91
-1.44
-1.86
-2.24
-2.69
-3.31
-4.15
-5.20
-6.38
-7.58
-8.66
-9.45
-9.78
-9.51
-8.56
-6.96
-4.85
-2.47
-0.09
2.05
3.78
5.01
5.78
6.17
6.27
6.14
5.80
5.23
4.47
3.53
2.51
1.47
0.46
-0.49
-1.37
-2.15
-2.80
-3.29
-3.62
-3.90
-4.30
-4.96
-5.94
-7.11
-8.14
-8.65
-8.36
-7.21
-5.38
-3.22
-1.09
0.80
2.38
3.68
4.72
5.49
5.98
6.18
6.16
5.99
5.71
5.30
4.71
3.96
3.13
2.34
1.69
1.17
0.72
0.27
-0.22
-0.72
-1.21
-1.71
-2.34
-3.22
-4.35
-5.53
-6.47
-6.84
-6.45
-5.33
-3.67
-1.74
0.22
2.03
3.57
4.76
5.54
5.93
5.96
5.72
5.28
4.71
4.02
3.23
2.38
1.54
0.83
0.31
-0.01
-0.19
-0.31
-0.45
-0.64
-0.89
-1.22
-1.68
-2.31
-3.09
-3.90
-4.55
-4.80
-4.47
-3.49
-1.93
-0.03
1.96
3.75
5.15
6.07
6.49
6.47
6.12
5.50
4.72
3.83
2.91
2.03
1.23
0.56
-0.00
-0.47
-0.88
-1.27
-1.66
-2.04
-2.42
-2.80
-3.24
-3.81
-4.58
-5.55
-6.61
-7.54
-8.10
-8.10
-7.48
-6.32
-4.78
-3.05
-1.24
0.52
2.12
3.42
4.29
4.65
4.55
4.15
3.59
2.98
2.33
1.58
0.75
-0.10
-0.80
-1.26
-1.44
-1.47
-1.53
-1.77
-2.28
-3.05
-4.04
-5.20
-6.48
-7.77
-8.85
-9.45
-9.34
-8.45
-6.88
-4.91
-2.85
-0.95
0.65
1.93
2.90
3.56
3.95
4.11
4.11
4.04
3.93
3.76
3.48
3.05
2.47
1.84
1.28
0.91
0.75
0.76
0.83
0.83
0.63
0.12
-0.70
-1.77
-2.93
-3.96
-4.62
-4.77
-4.31
-3.28
-1.83
-0.15
1.55
3.07
4.28
5.14
5.68
5.98
6.13
6.16
6.07
5.82
5.34
4.61
3.67
2.61
1.54
0.58
-0.24
-0.94
-1.65
-2.49
-3.54
-4.80
-6.18
-7.58
-8.93
-10.16
-11.16
-11.81
-11.90
-11.31
-10.03
-8.27
-6.31
-4.46
-2.91
-1.68
-0.67
0.23
1.09
1.89
2.59
3.09
3.37
3.38
3.13
2.64
2.00
1.29
0.59
-0.07
-0.65
-1.14
-1.56
-1.92
-2.27
-2.72
-3.36
-4.29
-5.46
-6.72
-7.78
-8.31
-8.08
-7.04
-5.25
-2.92
-0.32
2.35
4.90
7.27
9.37
11.17
12.55
13.36
13.49
12.94
11.83
10.45
9.06
7.87
6.93
6.12
5.34
4.51
3.69
2.95
2.39
1.97
1.63
1.25
0.77
0.18
-0.55
-1.42
-2.44
-3.57
-4.64
-5.40
-5.57
-5.01
-3.75
-2.00
-0.05
1.84
3.53
4.98
6.21
7.19
7.89
8.25
8.27
8.01
7.59
7.14
6.79
6.60
6.56
6.62
6.70
6.69
6.51
6.10
5.49
4.73
3.90
3.08
2.25
1.41
0.52
-0.41
-1.32
-2.17
-2.93
-3.58
-4.14
-4.54
-4.70
-4.47
-3.77
-2.61
-1.13
0.41
1.78
2.78
3.34
3.48
3.31
2.97
2.60
2.29
2.10
2.00
2.00
2.04
2.07
2.02
1.81
1.37
0.72
-0.05
-0.78
-1.31
-1.58
-1.65
-1.67
-1.81
-2.15
-2.69
-3.28
-3.77
-3.98
-3.79
-3.14
-2.06
-0.70
0.74
2.04
3.10
3.90
4.54
5.13
5.76
6.37
6.90
7.24
7.33
7.15
6.69
5.95
4.90
3.58
2.09
0.58
-0.74
-1.71
-2.30
-2.59
-2.71
-2.81
-2.96
-3.16
-3.36
-3.48
-3.47
-3.30
-2.95
-2.39
-1.59
-0.60
0.46
1.39
2.03
2.30
2.29
2.19
2.21
2.41
2.71
2.95
2.97
2.76
2.40
2.06
1.84
1.78
1.81
1.82
1.67
1.25
0.48
-0.65
-2.09
-3.68
-5.24
-6.61
-7.71
-8.54
-9.13
-9.45
-9.42
-8.93
-7.93
-6.52
-4.89
-3.26
-1.78
-0.52
0.51
1.30
1.80
1.91
1.60
0.93
0.09
-0.71
-1.34
-1.75
-2.03
-2.26
-2.50
-2.73
-2.93
-3.06
-3.18
-3.30
-3.44
-3.58
-3.71
-3.87
-4.14
-4.62
-5.34
-6.18
-6.93
-7.34
-7.26
-6.64
-5.57
-4.12
-2.37
-0.41
1.60
3.42
4.78
5.50
5.57
5.16
4.55
3.95
3.47
3.10
2.75
2.38
1.96
1.52
1.05
0.51
-0.10
-0.72
-1.20
-1.43
-1.34
-1.00
-0.61
-0.38
-0.52
-1.09
-2.01
-3.10
-4.11
-4.84
-5.14
-4.95
-4.31
-3.33
-2.17
-1.01
-0.01
0.77
1.33
1.75
2.10
2.41
2.58
2.55
2.28
1.89
1.55
1.40
1.39
1.31
0.91
0.08
-1.05
-2.14
-2.89
-3.16
-3.10
-3.02
-3.20
-3.78
-4.69
-5.81
-6.97
-8.09
-9.15
-10.06
-10.76
-11.13
-11.10
-10.62
-9.73
-8.53
-7.18
-5.88
-4.83
-4.11
-3.68
-3.42
-3.13
-2.65
-1.92
-1.02
-0.13
0.54
0.93
1.08
1.18
1.40
1.82
2.39
2.92
3.18
3.03
2.53
1.82
1.03
0.14
-0.97
-2.42
-4.28
-6.50
-8.89
-11.07
-12.74
-13.76
-14.20
-14.24
-14.03
-13.73
-13.46
-13.33
-13.02
-12.22
-10.80
-8.87
-6.66
-4.32
-1.88
0.64
3.24
6.38
10.31
14.92
19.76
24.40
28.77
33.09
37.69
42.70
48.62
55.44
62.53
68.85
73.60
76.76
79.00
81.34
79.93
72.39
58.83
42.03
25.26
10.45
-1.80
-11.45
-18.58
-23.15
-24.74
-23.34
-19.71
-14.86
-10.26
-6.84
-4.86
-4.13
-4.22
-4.44
-4.22
-3.25
-1.55
0.51
2.43
3.74
3.83
2.70
0.79
-1.04
-1.91
-1.47
-0.35
0.05
-1.75
-6.56
-14.10
-23.74
-34.56
-45.59
-56.08
-65.63
-73.86
-80.15
-83.69
-79.76
-66.70
-47.48
-28.18
-13.91
-6.37
-4.06
-4.05
-3.59
-2.18
-0.14
1.62
2.64
3.11
3.56
4.40
5.58
6.69
7.87
8.44
7.84
6.16
4.13
2.59
2.12
2.79
4.33
6.28
7.88
8.60
8.46
7.89
7.45
7.39
7.67
8.06
8.31
8.10
7.33
6.15
4.86
3.73
2.87
2.24
1.74
1.29
0.77
0.07
-0.83
-1.86
-2.87
-3.74
-4.38
-4.87
-5.31
-5.86
-6.56
-7.29
-7.81
-7.86
-7.27
-6.03
-4.28
-2.22
-0.07
2.00
3.86
5.38
6.47
7.09
7.24
6.98
6.45
5.77
5.08
4.50
4.08
3.76
3.46
3.05
2.45
1.70
0.90
0.19
-0.38
-0.87
-1.41
-2.13
-3.08
-4.19
-5.32
-6.32
-7.06
-7.46
-7.46
-7.00
-6.09
-4.79
-3.25
-1.66
-0.17
1.16
2.36
3.49
4.53
5.37
5.82
5.72
5.10
4.17
3.22
2.53
2.17
2.03
1.85
1.45
0.79
-0.02
-0.77
-1.28
-1.53
-1.65
-1.81
-2.17
-2.82
-3.73
-4.80
-5.85
-6.71
-7.23
-7.24
-6.69
-5.60
-4.05
-2.23
-0.33
1.45
2.99
4.18
5.04
5.60
5.91
6.00
5.87
5.52
4.94
4.19
3.37
2.60
1.93
1.39
0.92
0.44
-0.08
-0.62
-1.10
-1.43
-1.60
-1.67
-1.85
-2.34
-3.28
-4.61
-6.02
-7.12
-7.54
-7.14
-6.04
-4.56
-3.04
-1.68
-0.51
0.57
1.62
2.64
3.50
4.06
4.24
4.10
3.79
3.45
3.16
2.89
2.52
1.96
1.22
0.39
-0.39
-1.02
-1.48
-1.83
-2.15
-2.54
-3.06
-3.71
-4.49
-5.39
-6.40
-7.46
-8.47
-9.28
-9.68
-9.49
-8.67
-7.29
-5.55
-3.73
-1.99
-0.24
1.82
4.59
8.41
13.38
19.34
25.91
32.41
38.09
42.23
44.26
43.82
40.96
36.09
30.00
23.60
17.39
11.62
6.36
1.64
-2.62
-6.44
-10.05
-13.68
-17.55
-22.14
-27.64
-33.76
-39.89
-45.40
-49.78
-52.94
-54.93
-55.82
-56.18
-56.42
-56.58
-56.36
-55.43
-53.45
-50.65
-47.60
-41.91
-33.12
-22.59
-12.56
-4.34
0.85
4.55
7.74
10.59
12.81
13.91
13.44
11.57
8.88
5.89
2.90
-0.40
-4.37
-9.06
-14.55
-20.50
-26.23
-31.00
-34.31
-35.86
-35.69
-33.79
-30.02
-24.48
-17.46
-9.40
-0.94
7.13
14.18
19.79
23.97
27.16
29.85
32.48
35.31
38.38
41.50
44.38
46.69
48.18
48.81
48.61
47.78
46.55
45.28
44.29
43.96
44.69
46.86
50.77
56.44
63.57
71.52
79.48
86.69
92.70
97.34
100.70
102.90
103.99
103.88
102.47
99.76
95.94
91.27
85.99
80.20
73.90
67.09
59.90
52.62
45.62
39.18
33.35
28.01
22.86
17.59
12.01
6.05
-0.20
-6.64
-13.08
-19.44
-25.65
-31.60
-37.14
-42.00
-45.86
-48.36
-49.34
-48.82
-47.03
-44.36
-41.20
-37.87
-34.55
-31.35
-28.24
-25.19
-22.21
-19.36
-16.85
-14.92
-13.83
-13.72
-14.54
-16.09
-18.09
-20.30
-22.62
-25.14
-28.04
-31.59
-36.04
-41.62
-48.44
-56.45
-65.27
-74.21
-82.35
-88.74
-92.72
-94.14
-93.35
-90.98
-87.63
-83.56
-78.67
-72.61
-65.12
-56.26
-46.53
-36.65
-27.41
-19.31
-12.54
-6.99
-2.40
1.43
4.61
7.08
8.76
9.58
9.56
8.84
7.60
6.09
4.48
2.91
1.41
-0.04
-1.50
-2.94
-4.22
-5.11
-5.38
-4.85
-3.53
-1.56
0.79
3.24
5.57
7.58
9.12
10.04
10.19
9.50
8.00
5.83
3.29
0.66
-1.80
-3.90
-5.59
-6.84
-7.69
-8.15
-8.28
-8.16
-7.92
-7.73
-7.77
-8.13
-8.81
-9.69
-10.53
-11.09
-11.20
-10.84
-10.16
-9.36
-8.66
-8.17
-7.83
-7.51
-7.02
-6.26
-5.22
-4.01
-2.80
-1.79
-1.06
-0.64
-0.49
-0.52
-0.71
-1.16
-2.01
-3.42
-5.45
-7.97
-10.78
-13.68
-16.57
-19.51
-22.56
-25.65
-28.49
-30.59
-31.49
-30.97
-29.13
-26.38
-23.20
-19.98
-16.94
-14.13
-11.56
-9.26
-7.27
-5.58
-4.07
-2.52
-0.66
1.70
4.60
7.97
11.60
15.25
18.64
21.57
23.91
25.68
27.06
28.33
29.82
31.75
34.19
37.02
40.00
42.87
45.37
47.38
48.89
50.03
50.95
51.81
52.55
53.00
52.85
51.88
50.10
47.80
45.57
44.03
43.62
44.40
45.99
47.65
48.38
47.21
43.35
36.48
26.90
15.64
4.42
-4.74
-10.10
-10.79
-7.23
-1.14
5.01
8.84
8.85
4.84
-2.25
-10.88
-19.57
-27.24
-33.24
-37.20
-38.76
-37.72
-34.19
-28.81
-22.67
-17.10
-13.14
-11.27
-11.30
-12.52
-14.13
-15.49
-16.26
-16.38
-15.98
-15.25
-14.46
-13.91
-13.90
-14.59
-15.96
-17.80
-19.77
-21.60
-23.17
-24.53
-25.76
-26.81
-27.46
-27.37
-26.27
-24.11
-21.15
-17.78
-14.41
-11.24
-8.31
-5.51
-2.78
-0.13
2.25
4.17
5.47
6.17
6.37
6.28
6.07
5.81
5.46
4.89
3.95
2.63
1.01
-0.69
-2.25
-3.52
-4.56
-5.56
-6.78
-8.37
-10.28
-12.24
-13.86
-14.84
-14.97
-14.25
-12.76
-10.62
-7.95
-4.87
-1.57
1.71
4.74
7.28
9.22
10.58
11.48
12.12
12.66
13.17
13.61
13.83
13.62
12.89
11.64
10.06
8.40
6.92
5.77
4.93
4.27
3.59
2.69
1.44
-0.24
-2.31
-4.61
-6.85
-8.64
-9.61
-9.48
-8.20
-5.91
-2.94
0.32
3.51
6.38
8.80
10.71
12.09
12.94
13.30
13.23
12.80
12.12
11.24
10.21
9.05
7.81
6.52
5.27
4.12
3.10
2.22
1.45
0.77
0.15
-0.50
-1.26
-2.30
-3.71
-5.48
-7.39
-9.11
-10.26
-10.55
-9.92
-8.47
-6.46
-4.16
-1.80
0.53
2.80
4.96
6.94
8.60
9.77
10.27
9.99
8.92
7.19
4.98
2.56
0.12
-2.25
-4.53
-6.73
-8.88
-10.96
-12.96
-14.85
-16.67
-18.46
-20.33
-22.35
-24.60
-27.11
-29.83
-32.63
-35.25
-37.36
-38.61
-38.81
-37.92
-36.14
-33.74
-31.02
-28.19
-25.37
-22.54
-19.65
-16.63
-13.43
-10.03
-6.45
-2.70
1.15
5.00
8.74
12.24
15.41
18.26
20.84
23.21
25.43
27.49
29.39
31.15
32.87
34.69
36.83
39.45
42.63
46.33
50.33
54.27
57.69
60.18
61.57
61.97
61.79
61.50
61.47
61.77
62.19
62.40
62.06
61.03
59.29
56.88
53.83
50.12
45.73
40.72
35.30
29.77
24.47
19.68
15.53
12.04
9.12
6.60
4.33
2.15
-0.05
-2.31
-4.63
-6.90
-8.97
-10.69
-11.95
-12.72
-13.05
-13.02
-12.71
-12.22
-11.62
-10.99
-10.47
-10.16
-10.09
-10.29
-10.69
-11.25
-11.93
-12.73
-13.61
-14.50
-15.31
-15.93
-16.35
-16.60
-16.78
-16.95
-17.13
-17.29
-17.43
-17.57
-17.80
-18.18
-18.67
-19.15
-19.41
-19.32
-18.85
-18.08
-17.17
-16.17
-15.07
-13.76
-12.15
-10.28
-8.30
-6.49
-5.12
-4.39
-4.31
-4.73
-5.38
-5.95
-6.23
-6.18
-5.85
-5.40
-4.94
-4.54
-4.19
-3.87
-3.59
-3.39
-3.33
-3.41
-3.60
-3.81
-3.96
-4.00
-3.97
-3.94
-3.97
-4.08
-4.25
-4.41
-4.48
-4.41
-4.20
-3.84
-3.42
-3.02
-2.76
-2.73
-2.97
-3.48
-4.13
-4.76
-5.21
-5.39
-5.29
-5.02
-4.75
-4.66
-4.86
-5.38
-6.15
-7.00
-7.74
-8.20
-8.29
-8.04
-7.58
-7.04
-6.59
-6.29
-6.09
-5.92
-5.70
-5.36
-4.91
-4.40
-3.87
-3.32
-2.74
-2.08
-1.34
-0.57
0.10
0.52
0.60
0.35
-0.11
-0.57
-0.84
-0.83
-0.53
0.00
0.70
1.57
2.69
4.12
5.88
7.88
9.99
12.07
14.03
15.89
17.72
19.64
21.66
23.77
25.84
27.72
29.24
30.34
30.99
31.23
31.10
30.53
29.38
27.51
24.90
21.72
18.28
14.96
11.94
9.20
6.55
3.82
0.98
-1.85
-4.50
-6.91
-9.22
-11.64
-14.28
-16.99
-19.37
-20.99
-21.59
-21.19
-20.02
-18.39
-16.49
-14.37
-12.00
-9.41
-6.75
-4.22
-2.02
-0.25
1.09
2.08
2.72
3.01
2.93
2.42
1.48
0.09
-1.80
-4.21
-7.16
-10.55
-14.22
-17.98
-21.69
-25.31
-28.92
-32.63
-36.45
-40.26
-43.79
-46.73
-48.90
-50.22
-50.78
-50.72
-50.12
-49.06
-47.58
-45.70
-43.46
-40.91
-38.08
-34.97
-31.58
-27.99
-24.36
-20.94
-17.95
-15.56
-13.86
-12.84
-12.41
-12.34
-12.31
-11.98
-11.13
-9.80
-8.28
-7.02
-6.34
-6.34
-6.89
-7.73
-8.72
-9.89
-11.40
-13.34
-15.55
-17.65
-19.16
-19.71
-19.16
-17.58
-15.16
-12.11
-8.60
-4.82
-1.01
2.56
5.61
7.91
9.41
10.15
10.29
10.04
9.60
9.17
8.87
8.76
8.82
8.93
8.90
8.57
7.80
6.59
5.00
3.16
1.15
-1.03
-3.46
-6.14
-8.94
-11.49
-13.25
-13.74
-12.65
-10.00
-6.07
-1.30
3.87
9.08
14.05
18.59
22.47
25.51
27.60
28.75
29.09
28.85
28.25
27.47
26.57
25.53
24.26
22.73
20.95
19.06
17.22
15.53
14.01
12.51
10.83
8.73
6.04
2.67
-1.33
-5.74
-10.19
-14.16
-17.10
-18.52
-18.09
-15.80
-11.86
-6.74
-1.02
4.70
9.88
14.12
17.21
19.17
20.15
20.40
20.16
19.60
18.85
18.02
17.18
16.41
15.70
14.92
13.91
12.52
10.73
8.72
6.73
5.04
3.77
2.85
2.06
1.09
-0.34
-2.35
-4.87
-7.60
-10.03
-11.59
-11.82
-10.43
-7.40
-2.97
2.46
8.38
14.29
19.72
24.32
27.89
30.39
31.90
32.55
32.50
31.88
30.80
29.36
27.72
26.02
24.34
22.74
21.19
19.69
18.23
16.84
15.52
14.27
13.04
11.77
10.36
8.78
7.00
5.01
2.83
0.44
-2.16
-4.91
-7.65
-10.01
-11.45
-11.37
-9.37
-5.41
0.07
6.18
11.89
16.21
18.53
18.64
16.75
13.29
8.82
3.90
-1.01
-5.54
-9.37
-12.29
-14.18
-15.05
-15.02
-14.31
-13.16
-11.76
-10.22
-8.59
-6.88
-5.13
-3.43
-1.91
-0.68
0.16
0.56
0.48
-0.18
-1.51
-3.68
-6.78
-10.76
-15.37
-20.07
-24.18
-26.97
-27.94
-26.86
-23.91
-19.57
-14.46
-9.21
-4.30
-0.02
3.56
6.47
8.79
10.58
11.84
12.54
12.70
12.40
11.84
11.23
10.72
10.38
10.15
9.93
9.67
9.36
9.04
8.71
8.33
7.80
7.06
6.10
4.99
3.75
2.36
0.73
-1.20
-3.32
-5.32
-6.72
-7.08
-6.17
-4.06
-1.04
2.49
6.20
9.85
13.24
16.17
18.40
19.78
20.32
20.20
19.70
19.08
18.55
18.16
17.88
17.68
17.50
17.26
16.89
16.36
15.69
14.99
14.42
14.10
14.06
14.19
14.37
14.44
14.34
14.10
13.80
13.58
13.65
14.19
15.27
16.84
18.59
20.10
20.91
20.75
19.64
17.87
15.82
13.79
11.88
10.04
8.09
5.93
3.55
0.99
-1.75
-4.76
-8.17
-12.05
-16.34
-20.80
-25.08
-28.85
-31.91
-34.26
-36.04
-37.43
-38.61
-39.67
-40.62
-41.47
-42.25
-43.02
-43.77
-44.40
-44.62
-44.03
-42.30
-39.28
-35.14
-30.29
-25.22
-20.41
-16.10
-12.39
-9.26
-6.68
-4.64
-3.12
-2.07
-1.35
-0.82
-0.42
-0.16
-0.15
-0.45
-1.00
-1.63
-2.12
-2.33
-2.24
-1.94
-1.61
-1.38
-1.36
-1.62
-2.22
-3.23
-4.63
-6.28
-7.84
-8.90
-9.04
-8.05
-5.94
-2.93
0.61
4.35
7.98
11.34
14.29
16.73
18.56
19.72
20.21
20.11
19.61
18.87
18.03
17.16
16.20
15.09
13.80
12.38
10.93
9.61
8.52
7.64
6.88
6.07
5.07
3.75
2.11
0.25
-1.62
-3.19
-4.09
-3.96
-2.62
-0.11
3.28
7.13
10.98
14.52
17.57
20.07
21.96
23.18
23.66
23.44
22.69
21.69
20.75
20.09
19.80
19.80
19.93
20.03
20.03
19.97
19.99
20.29
21.03
22.32
24.10
26.21
28.32
29.97
30.62
29.74
27.00
22.44
16.48
9.81
3.16
-2.97
-8.45
-13.41
-18.11
-22.71
-27.18
-31.33
-34.94
-37.81
-39.83
-40.94
-41.18
-40.63
-39.49
-38.12
-36.98
-36.61
-37.47
-39.84
-43.68
-48.64
-54.05
-59.17
-63.34
-66.15
-67.50
-67.51
-66.42
-64.45
-61.84
-58.77
-55.39
-51.75
-47.78
-43.25
-37.86
-31.42
-23.91
-15.60
-6.99
1.36
8.94
15.38
20.48
24.14
26.35
27.13
26.54
24.78
22.17
19.13
16.15
13.59
11.66
10.33
9.33
8.27
6.84
4.89
2.63
0.50
-0.84
-0.86
0.71
3.67
7.43
11.19
14.23
16.25
17.43
18.41
19.98
22.75
26.87
32.01
37.46
42.41
46.14
48.20
48.40
46.82
43.72
39.58
35.04
30.80
27.42
25.17
23.90
23.12
22.19
20.62
18.16
14.90
11.11
7.14
3.25
-0.39
-3.74
-6.79
-9.64
-12.47
-15.49
-18.84
-22.41
-25.78
-28.31
-29.28
-28.23
-25.14
-20.39
-14.66
-8.66
-2.94
2.16
6.50
9.97
12.48
13.96
14.50
14.31
13.75
13.16
12.76
12.53
12.33
12.00
11.50
10.98
10.69
10.84
11.44
12.34
13.18
13.61
13.37
12.37
10.76
8.87
7.18
6.15
6.08
7.05
8.89
11.31
13.98
16.59
18.90
20.68
21.70
21.80
20.93
19.23
16.92
14.25
11.37
8.33
5.13
1.78
-1.64
-5.01
-8.18
-11.04
-13.57
-15.74
-17.62
-19.32
-21.00
-22.84
-24.99
-27.45
-30.05
-32.39
-34.03
-34.51
-33.55
-31.12
-27.34
-22.50
-16.88
-10.74
-4.32
2.17
8.44
14.19
19.02
22.52
24.26
23.93
21.49
17.36
12.40
7.76
4.49
3.20
3.82
5.71
7.98
9.87
10.99
11.33
11.03
10.21
8.84
6.90
4.43
1.66
-1.16
-3.84
-6.46
-9.27
-12.61
-16.59
-20.92
-24.89
-27.57
-28.17
-26.40
-22.62
-17.81
-13.23
-10.07
-9.08
-10.39
-13.62
-18.03
-22.88
-27.62
-32.00
-35.98
-39.59
-42.79
-45.46
-47.41
-48.46
-48.50
-47.52
-45.54
-42.70
-39.28
-35.73
-32.62
-30.47
-29.59
-29.86
-30.77
-31.53
-31.28
-29.30
-25.19
-18.95
-10.90
-1.67
8.05
17.65
26.79
35.42
43.59
51.30
58.38
64.50
69.37
72.88
75.10
76.20
76.24
75.12
72.66
68.81
63.72
57.75
51.23
44.36
37.13
29.41
21.16
12.56
4.03
-3.88
-10.59
-15.73
-19.19
-21.22
-22.38
-23.35
-24.73
-26.76
-29.23
-31.55
-33.03
-33.10
-31.57
-28.64
-24.75
-20.41
-16.03
-11.82
-7.90
-4.34
-1.29
1.08
2.60
3.27
3.25
2.92
2.61
2.57
2.79
3.09
3.23
3.05
2.59
2.01
1.53
1.27
1.17
1.08
0.76
0.04
-1.14
-2.76
-4.76
-7.08
-9.61
-12.24
-14.70
-16.64
-17.65
-17.42
-15.81
-12.93
-9.12
-4.84
-0.56
3.35
6.69
9.37
11.40
12.79
13.56
13.77
13.51
12.99
12.37
11.80
11.29
10.72
9.95
8.92
7.69
6.44
5.37
4.53
3.88
3.25
2.50
1.53
0.27
-1.32
-3.32
-5.83
-8.81
-11.96
-14.78
-16.66
-17.12
-16.01
-13.55
-10.20
-6.46
-2.68
1.01
4.56
7.92
10.96
13.42
15.07
15.78
15.62
14.82
13.68
12.49
11.44
10.59
9.90
9.25
8.50
7.58
6.48
5.30
4.15
3.14
2.32
1.65
0.95
0.05
-1.25
-3.01
-5.20
-7.56
-9.72
-11.23
-11.68
-10.84
-8.73
-5.55
-1.60
2.76
7.25
11.59
15.55
18.92
21.50
23.27
24.28
24.70
24.72
24.47
24.04
23.44
22.67
21.74
20.65
19.38
17.83
15.93
13.63
10.96
8.01
4.96
1.94
-0.94
-3.66
-6.28
-8.90
-11.58
-14.32
-16.99
-19.36
-21.22
-22.31
-22.42
-21.47
-19.44
-16.48
-12.89
-9.02
-5.23
-1.80
1.07
3.30
4.83
5.63
5.74
5.29
4.53
3.71
2.99
2.42
1.88
1.23
0.44
-0.43
-1.26
-1.91
-2.40
-2.80
-3.20
-3.73
-4.47
-5.49
-6.84
-8.59
-10.71
-13.03
-15.22
-16.87
-17.56
-17.07
-15.38
-12.74
-9.55
-6.21
-3.04
-0.23
2.18
4.13
5.56
6.39
6.59
6.22
5.45
4.50
3.56
2.73
1.97
1.22
0.46
-0.26
-0.83
-1.13
-1.15
-0.96
-0.76
-0.77
-1.20
-2.18
-3.74
-5.81
-8.19
-10.59
-12.68
-14.09
-14.52
-13.84
-12.05
-9.39
-6.16
-2.71
0.66
3.78
6.52
8.87
10.78
12.21
13.08
13.37
13.13
12.47
11.56
10.49
9.33
8.07
6.71
5.29
3.93
2.74
1.80
1.06
0.40
-0.37
-1.44
-2.92
-4.82
-7.02
-9.32
-11.39
-12.89
-13.50
-13.01
-11.41
-8.86
-5.69
-2.27
1.03
3.98
6.46
8.48
10.06
11.23
11.97
12.26
12.10
11.53
10.66
9.60
8.42
7.18
5.88
4.59
3.35
2.26
1.34
0.60
-0.04
-0.71
-1.54
-2.62
-4.00
-5.62
-7.33
-8.88
-9.95
-10.27
-9.67
-8.12
-5.74
-2.78
0.47
3.74
6.82
9.59
11.95
13.82
15.14
15.83
15.91
15.49
14.71
13.76
12.75
11.74
10.70
9.64
8.58
7.58
6.64
5.68
4.52
3.02
1.11
-1.18
-3.72
-6.38
-9.01
-11.43
-13.39
-14.60
-14.74
-13.69
-11.50
-8.47
-5.02
-1.58
1.53
4.11
6.10
7.47
8.22
8.34
7.82
6.68
5.01
2.95
0.72
-1.44
-3.30
-4.73
-5.70
-6.25
-6.45
-6.39
-6.19
-6.03
-6.11
-6.66
-7.77
-9.38
-11.25
-13.08
-14.58
-15.53
-15.81
-15.32
-14.06
-12.04
-9.40
-6.39
-3.32
-0.48
1.92
3.82
5.26
6.30
6.95
7.21
7.05
6.55
5.83
5.06
4.34
3.69
3.00
2.18
1.17
0.05
-1.09
-2.15
-3.15
-4.15
-5.26
-6.57
-8.11
-9.80
-11.52
-13.04
-14.12
-14.50
-14.03
-12.66
-10.53
-7.94
-5.19
-2.53
-0.09
2.10
3.96
5.39
6.26
6.48
6.10
5.34
4.48
3.75
3.25
2.88
2.45
1.76
0.72
-0.61
-2.02
-3.31
-4.34
-5.13
-5.83
-6.69
-7.87
-9.41
-11.15
-12.80
-14.06
-14.73
-14.67
-13.89
-12.42
-10.35
-7.79
-4.91
-1.95
0.89
3.37
5.34
6.67
7.34
7.37
6.96
6.37
5.95
6.00
6.64
7.74
8.96
9.88
10.06
9.23
7.31
4.42
0.83
-3.19
-7.37
-11.59
-15.81
-20.03
-24.16
-27.97
-31.15
-33.35
-34.32
-33.93
-32.21
-29.29
-25.37
-20.69
-15.59
-10.39
-5.43
-0.85
3.43
7.73
12.54
18.29
25.29
33.47
42.42
51.37
59.38
65.46
68.70
68.51
64.70
57.60
48.01
37.11
26.21
16.46
8.54
2.57
-1.87
-5.46
-8.87
-12.53
-16.56
-20.86
-25.28
-29.73
-34.20
-38.72
-43.27
-47.70
-51.86
-55.65
-59.12
-62.45
-65.90
-69.60
-73.55
-77.53
-81.29
-84.65
-87.53
-90.01
-92.20
-94.12
-95.72
-96.95
-97.86
-98.61
-99.41
-100.12
-100.12
-98.24
-93.03
-83.42
-69.16
-51.04
-30.68
-9.97
9.47
26.58
40.92
52.56
61.96
69.93
77.52
85.79
95.45
106.47
117.90
128.25
136.09
140.70
142.43
142.39
141.95
142.12
143.29
145.29
147.62
149.64
150.56
149.58
145.99
139.54
130.73
120.77
111.19
103.06
96.47
90.39
83.09
72.88
58.76
40.75
19.69
-3.02
-25.79
-47.03
-65.28
-79.35
-88.61
-93.08
-93.52
-91.24
-87.72
-84.18
-81.23
-78.88
-76.70
-74.14
-70.88
-66.95
-62.66
-58.45
-54.65
-51.38
-48.53
-45.81
-42.98
-39.91
-36.66
-33.41
-30.46
-28.01
-26.12
-24.67
-23.43
-22.13
-20.55
-18.57
-16.13
-13.25
-10.00
-6.49
-2.91
0.54
3.71
6.51
8.90
10.88
12.44
13.55
14.20
14.39
14.18
13.61
12.77
11.68
10.40
9.04
7.71
6.56
5.63
4.90
4.27
3.56
2.63
1.40
-0.17
-2.05
-4.13
-6.21
-7.99
-9.13
-9.32
-8.39
-6.40
-3.61
-0.42
2.76
5.63
8.04
9.94
11.34
12.26
12.73
12.80
12.55
12.12
11.63
11.19
10.80
10.39
9.83
9.01
7.88
6.50
5.06
3.75
2.71
1.99
1.44
0.85
-0.06
-1.46
-3.35
-5.49
-7.45
-8.79
-9.13
-8.36
-6.63
-4.29
-1.75
0.65
2.72
4.47
5.93
7.15
8.14
8.85
9.28
9.41
9.29
8.98
8.56
8.09
7.60
7.08
6.48
5.71
4.72
3.52
2.20
0.93
-0.16
-0.99
-1.63
-2.24
-3.04
-4.15
-5.55
-7.04
-8.29
-8.96
-8.85
-7.99
-6.54
-4.75
-2.79
-0.72
1.47
3.68
5.74
7.35
8.29
8.50
8.15
7.56
6.96
6.48
6.02
5.47
4.74
3.88
3.00
2.24
1.69
1.30
0.99
0.61
0.06
-0.77
-1.88
-3.23
-4.70
-6.10
-7.26
-8.00
-8.24
-7.99
-7.29
-6.23
-4.85
-3.19
-1.27
0.81
2.92
4.86
6.44
7.53
8.05
8.06
7.66
7.04
6.36
5.75
5.25
4.79
4.22
3.41
2.33
1.07
-0.20
-1.26
-2.01
-2.47
-2.80
-3.21
-3.89
-4.91
-6.24
-7.70
-8.99
-9.79
-9.82
-8.96
-7.28
-5.03
-2.55
-0.13
2.04
3.89
5.45
6.75
7.79
8.50
8.82
8.73
8.27
7.54
6.69
5.84
5.10
4.51
4.06
3.68
3.31
2.88
2.36
1.76
1.08
0.33
-0.56
-1.64
-2.95
-4.49
-6.12
-7.61
-8.65
-9.00
-8.51
-7.20
-5.28
-3.02
-0.78
1.17
2.65
3.63
4.17
4.43
4.51
4.45
4.23
3.80
3.19
2.52
1.95
1.61
1.52
1.52
1.42
1.08
0.47
-0.27
-0.96
-1.51
-1.92
-2.32
-2.84
-3.61
-4.65
-5.92
-7.32
-8.63
-9.61
-10.01
-9.64
-8.50
-6.73
-4.59
-2.39
-0.38
1.29
2.59
3.50
4.10
4.43
4.54
4.48
4.27
3.95
3.56
3.15
2.74
2.35
1.90
1.34
0.66
-0.12
-0.90
-1.58
-2.17
-2.79
-3.57
-4.64
-5.99
-7.53
-9.05
-10.35
-11.25
-11.62
-11.38
-10.51
-9.10
-7.28
-5.23
-3.15
-1.23
0.41
1.66
2.51
2.94
3.00
2.76
2.34
1.83
1.29
0.78
0.29
-0.20
-0.77
-1.47
-2.36
-3.41
-4.54
-5.59
-6.39
-6.86
-7.06
-7.15
-7.39
-8.00
-9.03
-10.34
-11.57
-12.34
-12.29
-11.24
-9.23
-6.42
-3.06
0.65
4.55
8.60
12.79
17.16
21.76
26.61
31.66
36.74
41.50
45.48
48.17
49.05
47.74
44.12
38.42
31.17
23.11
15.04
7.64
1.33
-3.86
-8.30
-12.48
-16.80
-21.50
-26.60
-32.08
-37.71
-43.15
-47.97
-51.69
-53.79
-53.80
-51.59
-47.44
-42.06
-36.11
-29.99
-23.83
-17.57
-11.01
-4.03
3.23
10.77
17.58
22.36
24.70
25.14
24.44
23.11
21.68
20.69
20.50
21.21
22.71
24.62
26.27
26.86
25.88
23.39
19.86
15.99
12.32
9.19
6.68
4.71
3.18
2.14
1.77
2.12
3.04
4.17
5.20
5.94
6.29
6.20
5.67
4.74
3.50
2.06
0.55
-0.92
-2.32
-3.67
-5.03
-6.33
-7.40
-8.08
-8.31
-8.24
-8.18
-8.39
-9.03
-10.01
-11.11
-12.07
-12.67
-12.82
-12.52
-11.78
-10.63
-9.06
-7.08
-4.78
-2.33
0.04
2.13
3.78
4.92
5.60
5.91
5.97
5.85
5.60
5.17
4.49
3.51
2.21
0.70
-0.87
-2.32
-3.54
-4.52
-5.35
-6.13
-6.96
-7.89
-8.85
-9.78
-10.55
-10.97
-10.81
-9.86
-7.97
-5.21
-1.82
1.83
5.35
8.46
11.05
13.16
14.86
16.19
17.14
17.66
17.73
17.34
16.52
15.31
13.77
11.95
9.98
8.03
6.23
4.66
3.31
2.11
0.98
-0.14
-1.24
-2.35
-3.49
-4.78
-6.30
-8.05
-9.91
-11.62
-12.86
-13.39
-13.05
-11.95
-10.31
-8.48
-6.75
-5.31
-4.17
-3.25
-2.49
-1.87
-1.47
-1.37
-1.55
-1.86
-2.06
-1.98
-1.64
-1.28
-1.25
-1.83
-3.07
-4.75
-6.48
-7.93
-8.94
-9.60
-10.18
-10.99
-12.19
-13.75
-15.47
-16.98
-17.92
-17.99
-17.04
-15.12
-12.49
-9.50
-6.55
-3.90
-1.67
0.19
1.77
3.14
4.31
5.25
5.94
6.44
6.85
7.21
7.51
7.66
7.54
7.16
6.66
6.25
6.10
6.21
6.40
6.37
5.90
4.91
3.48
1.81
0.11
-1.52
-3.02
-4.31
-5.26
-5.69
-5.41
-4.36
-2.63
-0.50
1.69
3.60
4.98
5.75
5.96
5.73
5.20
4.50
3.72
2.92
2.08
1.18
0.16
-0.98
-2.16
-3.27
-4.20
-4.91
-5.51
-6.19
-7.12
-8.40
-9.94
-11.56
-13.10
-14.42
-15.48
-16.24
-16.65
-16.64
-16.15
-15.22
-13.93
-12.39
-10.67
-8.76
-6.62
-4.32
-2.06
-0.12
1.22
1.88
1.97
1.77
1.54
1.46
1.52
1.60
1.57
1.38
1.08
0.78
0.56
0.45
0.39
0.32
0.14
-0.19
-0.62
-1.06
-1.38
-1.41
-1.07
-0.33
0.77
2.07
3.46
4.85
6.20
7.52
8.76
9.79
10.47
10.66
10.22
9.09
7.41
5.44
3.54
2.01
1.01
0.43
0.03
-0.49
-1.33
-2.54
-4.01
-5.52
-6.89
-8.04
-8.96
-9.75
-10.52
-11.33
-12.14
-12.80
-13.02
-12.49
-11.00
-8.62
-5.65
-2.50
0.48
3.06
5.21
6.98
8.43
9.56
10.36
10.82
10.96
10.81
10.45
9.95
9.37
8.73
8.04
7.28
6.43
5.49
4.51
3.54
2.59
1.63
0.53
-0.86
-2.62
-4.72
-6.97
-9.11
-10.82
-11.85
-12.06
-11.43
-10.07
-8.19
-6.06
-3.95
-2.04
-0.41
0.93
2.02
2.83
3.25
3.12
2.33
0.89
-1.07
-3.28
-5.52
-7.62
-9.52
-11.18
-12.54
-13.45
-13.79
-13.55
-12.91
-12.25
-11.95
-12.27
-13.18
-14.43
-15.61
-16.37
-16.44
-15.73
-14.24
-12.01
-9.13
-5.72
-1.99
1.80
5.36
8.43
10.83
12.43
13.20
13.16
12.44
11.27
9.91
8.63
7.64
7.01
6.69
6.63
6.73
6.94
7.20
7.44
7.56
7.49
7.20
6.75
6.27
5.85
5.53
5.21
4.72
3.93
2.84
1.60
0.47
-0.27
-0.52
-0.28
0.31
1.13
2.13
3.29
4.62
6.04
7.33
8.27
8.70
8.57
7.99
7.14
6.20
5.29
4.45
3.65
2.80
1.85
0.81
-0.29
-1.33
-2.26
-3.02
-3.68
-4.32
-5.01
-5.76
-6.60
-7.54
-8.67
-10.11
-11.87
-13.82
-15.63
-16.85
-17.13
-16.32
-14.51
-11.94
-8.93
-5.75
-2.66
0.13
2.33
3.74
4.23
3.91
3.09
2.19
1.63
1.67
2.34
3.45
4.68
5.68
6.17
5.97
5.10
3.70
2.03
0.36
-1.08
-2.21
-3.10
-3.93
-4.89
-6.10
-7.55
-9.05
-10.33
-11.07
-11.02
-10.01
-8.08
-5.44
-2.51
0.22
2.32
3.60
4.13
4.23
4.27
4.53
5.07
5.77
6.49
7.18
7.89
8.71
9.62
10.44
10.92
10.87
10.27
9.33
8.30
7.38
6.59
5.85
5.00
3.92
2.59
1.03
-0.65
-2.27
-3.62
-4.47
-4.65
-4.07
-2.80
-0.99
1.22
3.76
6.61
9.76
13.12
16.50
19.59
22.10
23.82
24.68
24.76
24.22
23.25
21.96
20.43
18.67
16.78
14.87
13.08
11.49
10.05
8.63
7.13
5.54
3.93
2.40
1.00
-0.37
-1.81
-3.39
-4.99
-6.37
-7.24
-7.44
-6.95
-5.93
-4.59
-3.11
-1.58
-0.03
1.49
2.93
4.20
5.22
5.91
6.22
6.15
5.69
4.92
3.97
2.99
2.13
1.42
0.82
0.19
-0.58
-1.54
-2.61
-3.65
-4.56
-5.32
-6.00
-6.72
-7.59
-8.60
-9.71
-10.77
-11.62
-12.03
-11.76
-10.62
-8.58
-5.76
-2.47
0.91
4.09
6.90
9.32
11.41
13.17
14.56
15.48
15.91
15.89
15.52
14.95
14.23
13.34
12.22
10.84
9.21
7.42
5.58
3.81
2.21
0.82
-0.33
-1.28
-2.10
-2.94
-3.88
-5.00
-6.22
-7.39
-8.31
-8.76
-8.62
-7.89
-6.64
-5.06
-3.31
-1.57
0.03
1.37
2.40
3.09
3.48
3.63
3.61
3.49
3.30
3.05
2.72
2.32
1.85
1.36
0.87
0.39
-0.08
-0.56
-1.07
-1.60
-2.12
-2.61
-3.07
-3.55
-4.10
-4.76
-5.50
-6.23
-6.78
-7.02
-6.82
-6.12
-4.91
-3.26
-1.25
1.00
3.33
5.59
7.61
9.26
10.42
10.99
11.01
10.57
9.85
9.04
8.29
7.66
7.12
6.59
6.03
5.45
4.86
4.29
3.72
3.14
2.58
2.11
1.80
1.70
1.74
1.78
1.66
1.25
0.56
-0.26
-0.93
-1.08
-0.43
1.14
3.52
6.41
9.41
12.16
14.43
16.11
17.21
17.78
17.88
17.63
17.15
16.56
15.92
15.19
14.31
13.16
11.71
9.97
7.97
5.76
3.40
0.97
-1.35
-3.40
-5.07
-6.41
-7.58
-8.85
-10.42
-12.39
-14.66
-17.07
-19.39
-21.41
-22.97
-23.88
-24.01
-23.29
-21.78
-19.64
-17.11
-14.42
-11.73
-9.11
-6.57
-4.03
-1.44
1.24
4.00
6.73
9.27
11.49
13.25
14.53
15.33
15.60
15.32
14.42
12.92
10.96
8.80
6.71
4.82
3.08
1.27
-0.79
-3.22
-5.92
-8.69
-11.27
-13.44
-15.06
-16.04
-16.37
-16.09
-15.37
-14.43
-13.51
-12.78
-12.25
-11.79
-11.20
-10.35
-9.24
-8.01
-6.86
-5.96
-5.42
-5.28
-5.54
-6.19
-7.19
-8.47
-9.85
-11.13
-12.09
-12.61
-12.70
-12.50
-12.20
-12.01
-12.03
-12.27
-12.62
-12.93
-13.01
-12.70
-11.93
-10.71
-9.19
-7.59
-6.11
-4.91
-4.04
-3.40
-2.81
-2.11
-1.20
-0.14
0.87
1.62
2.00
2.06
1.98
1.96
2.15
2.48
2.78
2.89
2.72
2.34
1.88
1.50
1.26
1.11
1.01
0.87
0.70
0.50
0.33
0.26
0.41
0.86
1.68
2.81
4.13
5.49
6.76
7.89
8.88
9.72
10.34
10.68
10.67
10.34
9.79
9.13
8.43
7.69
6.88
6.00
5.09
4.25
3.55
3.00
2.52
1.97
1.21
0.16
-1.18
-2.76
-4.53
-6.43
-8.43
-10.47
-12.39
-13.95
-14.87
-14.95
-14.17
-12.75
-11.07
-9.53
-8.44
-7.90
-7.77
-7.78
-7.64
-7.19
-6.45
-5.57
-4.83
-4.55
-4.97
-6.17
-8.02
-10.22
-12.45
-14.45
-16.11
-17.47
-18.77
-20.28
-22.24
-24.79
-27.93
-31.60
-35.51
-39.16
-41.85
-43.06
-42.43
-39.86
-35.52
-29.75
-23.19
-16.41
-9.83
-3.71
1.45
5.30
7.86
9.53
11.05
12.79
14.92
17.42
20.06
21.99
22.51
21.50
19.49
17.38
15.44
13.63
11.72
9.42
5.80
0.18
-7.34
-15.96
-24.43
-32.25
-39.07
-44.40
-43.73
-34.54
-18.11
0.98
16.49
27.95
35.80
40.63
42.88
42.91
40.49
35.66
29.08
22.03
16.22
12.41
10.81
11.05
12.32
13.17
12.68
11.07
9.51
9.55
11.79
16.00
21.28
26.44
29.89
30.58
28.22
23.23
16.46
8.73
0.87
-6.25
-11.84
-15.59
-17.18
-16.24
-12.62
-6.91
-0.71
4.10
6.24
6.23
4.23
0.71
-3.45
-7.17
-9.96
-11.26
-10.82
-8.83
-5.80
-2.56
0.22
2.06
2.59
1.58
-0.77
-3.84
-6.66
-8.17
-7.87
-5.84
-2.87
-0.15
1.27
1.06
-0.50
-2.77
-5.26
-7.85
-10.60
-13.46
-16.08
-17.90
-18.33
-17.13
-14.55
-11.17
-7.62
-4.24
-1.04
2.17
5.56
9.12
12.61
15.66
17.99
19.45
20.13
20.22
19.94
19.45
18.79
17.95
16.87
15.48
13.76
11.75
9.53
7.27
5.16
3.32
1.78
0.41
-1.04
-2.77
-4.87
-7.27
-9.71
-11.86
-13.39
-14.06
-13.69
-12.23
-9.70
-6.25
-2.15
2.23
6.56
10.56
14.08
17.06
19.51
21.46
23.08
24.48
25.89
27.53
29.47
31.53
33.31
34.32
34.24
33.14
31.14
28.68
26.23
24.09
22.31
20.78
19.32
17.78
16.32
14.69
12.92
11.00
8.89
6.48
3.64
0.29
-3.55
-7.41
-11.36
-15.05
-18.11
-20.16
-20.83
-19.82
-16.97
-14.38
-10.12
-5.42
-1.31
1.30
1.79
-0.04
-4.00
-9.58
-16.03
-22.10
-27.17
-30.46
-31.55
-30.61
-28.26
-25.36
-22.69
-20.67
-19.10
-18.02
-17.16
-16.33
-15.41
-14.28
-12.73
-10.55
-7.65
-4.09
-0.54
2.32
3.90
4.04
3.03
1.55
0.36
0.04
0.86
2.62
5.03
7.73
10.44
12.92
14.94
16.25
16.67
16.19
14.96
13.34
11.70
10.41
9.62
9.28
9.18
9.02
8.47
7.33
5.52
3.18
0.58
-1.99
-4.29
-6.26
-7.96
-9.58
-11.29
-13.21
-15.40
-17.85
-20.52
-23.33
-26.08
-28.41
-29.77
-29.66
-27.70
-23.81
-18.26
-11.58
-4.48
2.31
8.19
12.77
15.83
17.34
17.49
16.68
15.33
13.84
12.43
11.35
10.67
10.21
9.69
8.84
7.54
5.84
3.90
1.90
0.41
-0.21
0.01
0.60
0.90
0.30
-1.55
-4.68
-8.82
-12.74
-15.16
-15.30
-13.15
-9.19
-4.04
1.81
8.06
14.57
22.23
31.75
43.12
55.44
67.44
78.03
86.58
92.93
92.54
83.11
65.81
45.06
25.48
9.54
-2.35
-10.69
-15.62
-18.14
-18.17
-15.76
-11.65
-7.21
-3.78
-2.14
-2.62
-4.93
-8.68
-12.84
-16.73
-20.35
-24.16
-28.59
-33.54
-38.38
-42.18
-44.26
-43.87
-40.92
-35.99
-30.17
-24.57
-19.89
-16.37
-13.85
-12.04
-10.35
-8.35
-5.80
-2.74
0.64
4.09
7.36
10.25
12.64
14.67
16.54
18.43
20.24
21.54
21.64
19.96
16.39
11.59
6.88
3.75
3.25
5.39
9.17
12.96
15.14
14.72
11.52
6.19
-0.09
-5.92
-9.96
-11.32
-9.80
-6.10
-1.68
1.70
2.61
0.46
-4.45
-11.13
-18.39
-25.24
-31.05
-35.46
-38.33
-39.68
-39.72
-38.90
-37.78
-36.87
-36.46
-36.51
-36.72
-36.67
-36.02
-34.53
-32.16
-28.97
-25.20
-21.13
-17.07
-13.26
-9.82
-6.69
-3.60
-0.19
3.84
8.67
14.27
20.44
26.81
32.95
38.39
42.69
45.46
46.46
45.64
43.18
39.44
34.94
30.13
25.37
20.75
16.29
11.97
7.84
4.05
0.72
-2.02
-4.16
-5.70
-6.64
-6.95
-6.72
-6.15
-5.59
-5.38
-5.76
-6.72
-8.06
-9.54
-11.03
-12.55
-14.16
-15.84
-17.33
-18.21
-18.08
-16.76
-14.35
-11.25
-7.93
-4.74
-1.84
0.79
3.24
5.59
7.76
9.62
11.02
11.83
12.00
11.55
10.57
9.23
7.74
6.29
5.00
3.91
2.97
2.11
1.27
0.41
-0.49
-1.49
-2.60
-3.85
-5.19
-6.50
-7.71
-8.82
-9.92
-11.17
-12.63
-14.21
-15.60
-16.38
-16.21
-14.91
-12.59
-9.53
-6.13
-2.74
0.44
3.29
5.79
7.91
9.58
10.71
11.25
11.24
10.79
10.10
9.36
8.72
8.25
7.92
7.64
7.29
6.75
5.95
4.91
3.70
2.44
1.18
-0.03
-1.22
-2.41
-3.60
-4.82
-6.13
-7.58
-9.21
-10.94
-12.53
-13.64
-13.93
-13.20
-11.47
-8.96
-6.01
-2.95
-0.06
2.46
4.49
5.95
6.82
7.17
7.15
6.92
6.61
6.27
5.94
5.61
5.28
4.93
4.50
3.92
3.09
2.02
0.79
-0.48
-1.64
-2.58
-3.30
-3.86
-4.41
-5.09
-6.07
-7.45
-9.26
-11.30
-13.25
-14.62
-15.00
-14.16
-12.15
-9.28
-5.96
-2.55
0.71
3.72
6.46
8.92
11.03
12.75
14.02
14.82
15.17
15.12
14.72
14.05
13.21
12.32
11.48
10.79
10.33
10.10
10.08
10.17
10.27
10.26
10.02
9.43
8.36
6.71
4.47
1.69
-1.48
-4.85
-8.18
-11.25
-13.86
-15.84
-17.02
-17.28
-16.58
-14.98
-12.65
-9.84
-6.83
-3.87
-1.18
1.08
2.82
3.97
4.49
4.38
3.72
2.70
1.57
0.63
0.08
-0.01
0.22
0.54
0.69
0.56
0.16
-0.36
-0.86
-1.32
-1.82
-2.52
-3.55
-4.94
-6.58
-8.35
-10.09
-11.70
-13.06
-14.04
-14.48
-14.21
-13.17
-11.39
-9.08
-6.48
-3.91
-1.59
0.34
1.82
2.85
3.51
3.90
4.13
4.29
4.44
4.62
4.81
5.04
5.23
5.36
5.37
5.20
4.81
4.20
3.44
2.62
1.82
1.02
0.19
-0.76
-1.94
-3.44
-5.29
-7.34
-9.30
-10.77
-11.42
-11.00
-9.48
-7.05
-4.05
-0.87
2.24
5.13
7.74
9.94
11.61
12.66
12.91
12.19
10.41
7.71
4.42
0.96
-2.40
-5.32
-7.46
-8.84
-9.87
-11.20
-13.30
-16.27
-19.80
-23.59
-26.92
-29.06
-29.80
-29.65
-29.48
-30.10
-32.00
-35.42
-40.47
-46.16
-50.46
-51.00
-46.02
-35.05
-19.08
-0.52
19.91
38.34
50.67
55.70
55.55
53.49
51.16
48.71
45.89
42.68
39.29
36.60
35.62
36.71
39.38
42.60
45.36
46.86
46.50
43.55
37.97
30.43
21.97
13.66
6.33
0.42
-4.25
-8.39
-13.06
-18.75
-25.16
-31.44
-36.75
-40.58
-42.84
-43.76
-43.60
-42.54
-40.36
-36.69
-31.42
-25.00
-18.27
-12.15
-7.31
-4.01
-2.20
-1.62
-1.98
-3.13
-5.03
-7.66
-10.92
-14.61
-18.43
-22.12
-25.42
-28.15
-30.22
-31.63
-32.45
-32.83
-32.88
-32.68
-32.21
-31.46
-30.41
-29.14
-27.77
-26.39
-24.94
-23.19
-20.70
-17.01
-11.81
-5.04
2.99
11.79
20.84
29.76
38.28
46.22
53.35
59.31
63.68
66.15
66.68
65.56
63.32
60.53
57.62
54.75
51.84
48.76
45.44
41.96
38.46
35.12
32.07
29.35
26.99
24.98
23.31
21.87
20.49
18.94
17.08
14.94
12.78
11.03
10.13
10.38
11.86
14.48
18.03
22.31
27.06
31.98
36.64
40.52
43.20
44.42
44.20
42.80
40.61
37.97
35.12
32.13
28.93
25.42
21.49
17.19
12.71
8.42
4.80
2.27
1.14
1.44
3.02
5.66
9.10
13.21
17.86
22.92
28.10
32.93
36.84
39.34
40.15
39.34
37.27
34.45
31.34
28.26
25.39
22.75
20.21
17.40
13.81
8.93
2.53
-5.00
-12.64
-19.12
-23.42
-25.40
-25.98
-26.78
-29.40
-34.69
-42.35
-51.19
-59.71
-66.77
-71.98
-75.59
-78.08
-79.73
-80.42
-79.82
-77.65
-74.06
-69.68
-65.31
-61.63
-58.92
-57.05
-55.62
-54.30
-53.07
-52.22
-52.15
-53.06
-54.80
-56.93
-58.95
-60.63
-62.07
-63.61
-65.43
-67.22
-68.11
-66.98
-62.92
-55.75
-46.16
-35.43
-24.93
-15.57
-7.70
-1.17
4.25
8.65
11.95
14.11
15.45
16.65
18.48
21.32
24.80
27.83
29.20
28.21
25.14
21.17
17.84
16.34
17.00
19.24
21.96
24.06
24.82
24.04
21.86
18.49
14.13
8.97
3.47
-1.62
-5.35
-6.88
-5.97
-3.17
0.24
2.68
2.91
0.44
-4.33
-10.36
-16.53
-21.99
-26.39
-29.68
-31.75
-32.34
-31.08
-27.92
-23.36
-18.57
-14.96
-13.65
-15.02
-18.56
-23.14
-27.41
-30.19
-30.64
-28.26
-22.88
-14.76
-4.65
6.19
16.32
24.39
29.52
31.42
30.36
26.94
22.00
16.43
11.12
6.80
3.90
2.48
2.19
2.45
2.66
2.36
1.32
-0.41
-2.55
-4.65
-6.14
-6.49
-5.34
-2.59
1.51
6.47
11.70
16.69
21.07
24.67
27.46
29.47
30.85
31.78
32.52
33.36
34.49
35.96
37.57
38.87
39.30
38.35
35.79
31.77
26.83
21.70
17.05
13.23
10.19
7.56
4.86
1.80
-1.56
-4.89
-7.72
-9.66
-10.56
-10.58
-10.01
-9.24
-8.57
-8.15
-8.06
-8.34
-9.05
-10.23
-11.87
-13.74
-15.45
-16.47
-16.36
-14.95
-12.46
-9.44
-6.59
-4.48
-3.36
-3.16
-3.63
-4.50
-5.60
-6.86
-8.26
-9.79
-11.43
-13.13
-14.87
-16.62
-18.23
-19.49
-20.14
-19.94
-18.76
-16.61
-13.59
-9.91
-5.80
-1.50
2.69
6.49
9.67
12.13
13.91
15.18
16.09
16.72
17.01
16.75
15.81
14.19
12.15
10.09
8.42
7.35
6.83
6.65
6.50
6.15
5.52
4.64
3.66
2.80
2.34
2.61
3.89
6.28
9.61
13.41
16.99
19.80
21.54
22.34
22.65
23.05
23.94
25.46
27.39
29.35
30.96
31.97
32.32
32.03
31.12
29.52
27.12
23.92
20.08
15.97
12.11
8.96
6.76
5.39
4.45
3.42
1.83
-0.51
-3.47
-6.62
-9.37
-11.07
-11.09
-8.94
-4.38
2.36
10.50
18.75
25.67
30.18
31.98
31.63
30.22
28.82
27.98
27.60
27.18
26.16
24.32
21.73
18.65
15.33
11.97
8.77
5.93
3.55
1.44
-0.95
-4.37
-9.46
-16.35
-24.53
-32.94
-40.41
-45.99
-49.24
-50.20
-49.17
-46.53
-42.63
-37.83
-32.60
-27.36
-22.36
-17.39
-11.84
-5.02
3.29
12.52
21.42
28.61
33.25
35.44
36.00
35.73
34.75
32.32
27.30
18.96
7.58
-5.51
-18.48
-29.79
-38.66
-45.12
-49.56
-52.32
-53.43
-52.71
-50.04
-45.69
-40.32
-34.83
-29.97
-26.05
-22.85
-19.84
-16.45
-12.47
-8.11
-3.97
-0.68
1.33
2.06
1.84
1.21
0.70
0.68
1.33
2.74
4.89
7.73
11.17
15.03
19.14
23.33
27.49
31.55
35.38
38.74
41.32
42.86
43.25
42.68
41.60
40.51
39.90
39.97
40.70
41.87
43.16
44.21
44.69
44.29
42.73
39.86
35.70
30.48
24.62
18.66
13.11
8.32
4.32
0.92
-2.35
-6.03
-10.57
-16.21
-22.90
-30.35
-38.10
-45.63
-52.41
-57.89
-61.51
-62.74
-61.22
-56.91
-50.20
-41.88
-32.97
-24.58
-17.57
-12.50
-9.51
-8.40
-8.67
-9.70
-10.93
-11.97
-12.76
-13.53
-14.63
-16.36
-18.76
-21.55
-24.21
-26.24
-27.26
-27.20
-26.24
-24.71
-22.95
-21.18
-19.46
-17.73
-15.88
-13.82
-11.55
-9.19
-6.93
-5.01
-3.57
-2.60
-1.91
-1.16
-0.01
1.78
4.24
7.19
10.34
13.39
16.13
18.46
20.32
21.75
22.73
23.31
23.50
23.35
22.88
22.14
21.17
20.05
18.89
17.78
16.79
15.90
15.03
14.09
13.02
11.83
10.61
9.47
8.46
7.57
6.68
5.69
4.51
3.16
1.67
0.17
-1.28
-2.55
-3.53
-4.02
-3.85
-2.87
-1.10
1.28
3.99
6.68
9.13
11.19
12.87
14.19
15.16
15.75
15.90
15.59
14.82
13.65
12.21
10.62
9.00
7.44
5.95
4.51
3.06
1.59
0.12
-1.27
-2.46
-3.39
-4.12
-4.77
-5.51
-6.50
-7.82
-9.45
-11.28
-13.17
-14.91
-16.30
-17.10
-17.15
-16.36
-14.75
-12.54
-10.00
-7.46
-5.17
-3.19
-1.47
0.11
1.63
3.09
4.39
5.42
6.12
6.46
6.48
6.21
5.69
4.97
4.09
3.14
2.23
1.41
0.68
-0.01
-0.73
-1.53
-2.41
-3.36
-4.37
-5.40
-6.46
-7.54
-8.66
-9.79
-10.87
-11.73
-12.14
-11.87
-10.79
-8.92
-6.44
-3.61
-0.66
2.26
5.06
7.70
10.11
12.22
13.94
15.26
16.21
16.86
17.32
17.73
18.24
18.97
19.95
21.06
22.07
22.63
22.48
21.53
19.87
17.76
15.44
13.08
10.73
8.37
5.97
3.55
1.14
-1.26
-3.68
-6.18
-8.75
-11.29
-13.54
-15.23
-16.13
-16.23
-15.77
-15.17
-14.92
-15.37
-16.59
-18.38
-20.30
-21.94
-22.99
-23.35
-23.11
-22.44
-21.53
-20.48
-19.36
-18.19
-17.01
-15.86
-14.76
-13.73
-12.74
-11.75
-10.72
-9.70
-8.77
-8.04
-7.63
-7.61
-8.00
-8.73
-9.69
-10.73
-11.68
-12.32
-12.43
-11.83
-10.48
-8.43
-5.93
-3.22
-0.54
1.98
4.35
6.63
8.84
10.95
12.87
14.49
15.73
16.56
17.00
17.12
16.98
16.61
16.04
15.26
14.32
13.27
12.21
11.23
10.38
9.67
9.04
8.37
7.55
6.49
5.16
3.58
1.83
-0.01
-1.89
-3.79
-5.70
-7.52
-9.07
-10.08
-10.27
-9.52
-7.91
-5.73
-3.33
-1.03
1.03
2.85
4.48
5.95
7.19
8.12
8.65
8.80
8.63
8.26
7.78
7.22
6.61
5.93
5.14
4.24
3.22
2.12
0.97
-0.17
-1.23
-2.19
-3.04
-3.81
-4.51
-5.20
-5.93
-6.79
-7.86
-9.17
-10.66
-12.14
-13.35
-13.96
-13.78
-12.72
-10.90
-8.55
-5.97
-3.40
-0.99
1.20
3.18
4.92
6.39
7.52
8.27
8.66
8.80
8.79
8.73
8.61
8.41
8.04
7.53
6.93
6.32
5.73
5.11
4.38
3.50
2.50
1.48
0.57
-0.20
-0.86
-1.53
-2.30
-3.18
-4.15
-5.16
-6.18
-7.17
-8.00
-8.44
-8.23
-7.13
-5.14
-2.46
0.55
3.47
6.06
8.18
9.85
11.13
12.07
12.70
13.05
13.18
13.13
12.94
12.60
12.10
11.53
11.04
10.78
10.77
10.86
10.78
10.24
9.19
7.80
6.41
5.33
4.62
4.07
3.29
1.95
-0.05
-2.54
-5.22
-7.76
-9.98
-11.75
-12.96
-13.47
-13.08
-11.70
-9.45
-6.66
-3.80
-1.26
0.77
2.28
3.39
4.22
4.82
5.19
5.32
5.27
5.10
4.85
4.54
4.08
3.41
2.53
1.47
0.34
-0.78
-1.87
-2.92
-3.97
-5.01
-6.02
-6.94
-7.70
-8.28
-8.71
-9.04
-9.35
-9.70
-10.12
-10.58
-11.03
-11.39
-11.58
-11.51
-11.12
-10.35
-9.18
-7.62
-5.68
-3.41
-0.91
1.64
4.00
5.86
6.98
7.26
6.78
5.81
4.72
3.80
3.17
2.76
2.35
1.72
0.75
-0.48
-1.73
-2.72
-3.24
-3.29
-3.06
-2.83
-2.83
-3.15
-3.70
-4.35
-5.02
-5.74
-6.58
-7.59
-8.75
-9.95
-11.08
-12.11
-13.05
-13.94
-14.73
-15.22
-15.15
-14.33
-12.73
-10.50
-7.96
-5.45
-3.25
-1.46
-0.04
1.13
2.15
3.05
3.74
4.02
3.74
2.87
1.60
0.32
-0.53
-0.60
0.24
1.84
3.88
5.94
7.64
8.66
8.77
7.83
5.82
2.90
-0.60
-4.31
-7.88
-11.22
-14.44
-17.78
-21.38
-25.10
-28.51
-31.02
-32.03
-31.06
-27.78
-21.98
-13.54
-2.52
10.75
25.52
40.59
54.44
65.47
72.29
74.02
70.49
62.33
50.88
37.96
25.39
14.63
6.49
1.01
-2.32
-4.31
-5.79
-7.42
-9.65
-12.70
-16.63
-21.33
-26.55
-31.91
-37.03
-41.63
-45.59
-49.02
-52.24
-55.59
-59.31
-63.37
-67.37
-70.57
-72.16
-71.51
-68.51
-63.64
-57.85
-52.26
-47.80
-44.88
-43.35
-42.64
-42.04
-40.99
-39.18
-36.50
-33.03
-28.93
-24.39
-19.56
-14.47
-9.03
-2.99
4.01
12.46
22.60
34.26
46.71
58.83
69.30
76.98
81.14
81.79
79.96
77.09
74.59
73.47
74.20
76.73
80.61
85.02
89.17
92.66
95.09
95.94
94.75
91.29
85.72
78.48
69.91
60.45
50.88
41.75
33.25
25.55
19.03
14.50
13.11
15.69
18.72
19.37
15.98
8.38
-2.64
-16.17
-31.17
-44.84
-57.00
-67.09
-73.81
-76.01
-73.33
-66.02
-54.84
-41.20
-26.77
-13.28
-1.64
7.04
12.28
14.47
15.19
16.10
18.16
21.38
24.95
28.00
30.02
32.00
33.69
35.09
36.33
37.62
39.24
41.19
43.33
45.40
47.23
47.84
47.25
45.87
44.19
42.41
40.14
36.62
31.12
23.49
14.20
4.48
-4.56
-12.39
-19.29
-25.95
-33.01
-40.62
-48.31
-55.35
-60.92
-64.62
-66.64
-67.48
-67.71
-67.68
-67.35
-66.41
-64.48
-61.20
-56.47
-50.47
-43.43
-35.59
-27.06
-17.86
-8.06
2.00
11.66
19.92
25.65
28.03
26.85
22.67
16.66
10.14
4.27
-0.31
-3.46
-5.43
-6.64
-7.54
-8.50
-9.84
-11.85
-14.69
-18.31
-22.33
-26.03
-28.59
-29.39
-28.32
-26.01
-23.61
-22.34
-22.88
-25.07
-27.92
-30.17
-30.87
-29.85
-27.69
-25.37
-23.80
-23.49
-24.46
-26.44
-29.02
-31.84
-34.63
-37.11
-39.01
-40.09
-40.18
-39.30
-37.65
-35.54
-33.28
-31.10
-29.01
-26.82
-24.30
-21.31
-17.95
-14.46
-11.14
-8.15
-5.51
-3.17
-1.15
0.41
1.39
1.87
2.25
3.21
5.48
9.52
15.31
22.40
30.06
37.61
44.58
50.75
56.02
60.29
63.41
65.16
65.43
64.24
61.82
58.50
54.56
50.14
45.23
39.72
33.55
26.77
19.59
12.32
5.34
-0.96
-6.27
-10.43
-13.45
-15.54
-17.04
-18.26
-19.46
-20.71
-21.96
-23.14
-24.26
-25.43
-26.76
-28.23
-29.63
-30.51
-30.39
-28.92
-26.04
-22.02
-17.33
-12.42
-7.59
-2.92
1.62
5.99
10.00
13.32
15.62
16.73
16.78
16.13
15.24
14.52
14.17
14.17
14.33
14.39
14.16
13.55
12.63
11.59
10.58
9.70
8.90
8.03
6.94
5.53
3.84
1.98
0.03
-1.98
-4.09
-6.29
-8.46
-10.33
-11.52
-11.71
-10.67
-8.39
-5.03
-0.86
3.78
8.55
13.08
17.05
20.19
22.38
23.59
23.93
23.53
22.51
20.96
18.95
16.61
14.09
11.57
9.21
7.12
5.31
3.76
2.45
1.36
0.39
-0.56
-1.66
-3.01
-4.62
-6.36
-8.05
-9.55
-10.89
-12.21
-13.75
-15.66
-17.94
-20.44
-22.92
-25.09
-26.60
-27.12
-26.34
-24.11
-20.55
-16.04
-11.11
-6.22
-1.63
2.64
6.69
10.54
14.01
16.78
18.58
19.34
19.25
18.67
17.98
17.42
17.02
16.69
16.30
15.79
15.18
14.54
13.91
13.28
12.61
11.81
10.80
9.60
8.30
7.06
6.03
5.26
4.63
3.92
2.83
1.20
-0.98
-3.59
-6.45
-9.46
-12.60
-15.83
-18.99
-21.68
-23.38
-23.62
-22.19
-19.29
-15.41
-11.11
-6.86
-2.92
0.67
3.96
6.96
9.61
11.79
13.43
14.51
15.11
15.30
15.18
14.79
14.21
13.52
12.85
12.30
11.93
11.74
11.63
11.52
11.27
10.75
9.79
8.32
6.30
3.86
1.29
-1.14
-3.24
-5.03
-6.76
-8.77
-11.30
-14.42
-17.92
-21.42
-24.42
-26.46
-27.14
-26.27
-23.85
-20.10
-15.42
-10.32
-5.32
-0.85
2.82
5.64
7.74
9.33
10.61
11.72
12.70
13.49
14.03
14.26
14.19
13.85
13.33
12.68
11.96
11.21
10.44
9.63
8.75
7.74
6.61
5.36
4.01
2.56
1.00
-0.70
-2.57
-4.63
-6.91
-9.40
-12.07
-14.78
-17.28
-19.21
-20.14
-19.77
-17.99
-14.95
-10.99
-6.51
-1.92
2.48
6.43
9.73
12.24
13.94
14.89
15.26
15.21
14.88
14.36
13.66
12.83
11.92
11.00
10.11
9.19
8.14
6.87
5.35
3.65
1.91
0.21
-1.38
-2.89
-4.40
-6.00
-7.77
-9.80
-12.13
-14.78
-17.70
-20.71
-23.45
-25.41
-26.07
-25.07
-22.32
-18.10
-12.99
-7.65
-2.65
1.69
5.31
8.31
10.82
12.87
14.42
15.34
15.57
15.15
14.23
13.07
11.89
10.78
9.73
8.62
7.34
5.91
4.43
3.09
1.98
1.08
0.23
-0.75
-2.02
-3.62
-5.53
-7.71
-10.12
-12.73
-15.39
-17.81
-19.56
-20.22
-19.49
-17.31
-13.96
-9.89
-5.64
-1.64
1.87
4.83
7.30
9.37
11.04
12.22
12.82
12.82
12.31
11.51
10.63
9.83
9.17
8.55
7.82
6.87
5.66
4.25
2.73
1.24
-0.16
-1.43
-2.64
-3.90
-5.35
-7.14
-9.34
-11.93
-14.76
-17.51
-19.75
-21.03
-20.99
-19.51
-16.77
-13.16
-9.15
-5.15
-1.45
1.85
4.69
7.01
8.77
9.89
10.38
10.33
9.88
9.19
8.44
7.75
7.20
6.84
6.64
6.47
6.21
5.72
5.00
4.06
2.99
1.83
0.57
-0.83
-2.40
-4.14
-6.03
-8.08
-10.31
-12.64
-14.85
-16.54
-17.23
-16.58
-14.51
-11.32
-7.50
-3.58
0.10
3.43
6.42
9.12
11.43
13.16
14.10
14.19
13.54
12.47
11.32
10.41
9.84
9.54
9.33
8.95
8.26
7.19
5.83
4.30
2.73
1.20
-0.33
-1.94
-3.75
-5.85
-8.28
-10.94
-13.62
-15.99
-17.68
-18.37
-17.82
-15.97
-12.96
-9.06
-4.66
-0.14
4.16
7.97
11.09
13.36
14.63
14.85
14.12
12.68
10.94
9.29
7.99
7.09
6.44
5.85
5.15
4.33
3.39
2.40
1.35
0.23
-1.00
-2.33
-3.79
-5.43
-7.35
-9.61
-12.08
-14.43
-16.18
-16.83
-16.07
-13.88
-10.50
-6.34
-1.76
2.92
7.46
11.64
15.16
17.71
19.02
19.04
17.91
16.03
13.86
11.80
10.12
8.83
7.80
6.86
5.85
4.70
3.42
2.10
0.80
-0.45
-1.70
-3.03
-4.60
-6.52
-8.85
-11.53
-14.34
-16.93
-18.87
-19.76
-19.36
-17.64
-14.78
-11.09
-6.93
-2.65
1.49
5.27
8.50
11.03
12.73
13.54
13.54
12.89
11.83
10.61
9.41
8.33
7.35
6.41
5.46
4.53
3.63
2.77
1.90
0.93
-0.24
-1.66
-3.32
-5.20
-7.35
-9.80
-12.57
-15.50
-18.23
-20.26
-21.10
-20.46
-18.35
-15.05
-10.96
-6.48
-1.94
2.48
6.61
10.27
13.23
15.30
16.38
16.53
15.95
14.93
13.75
12.58
11.42
10.22
8.86
7.30
5.57
3.78
2.04
0.43
-1.02
-2.36
-3.69
-5.12
-6.72
-8.56
-10.66
-13.04
-15.64
-18.30
-20.67
-22.29
-22.67
-21.48
-18.69
-14.61
-9.80
-4.89
-0.31
3.72
7.19
10.15
12.61
14.48
15.67
16.17
16.08
15.62
15.03
14.48
14.00
13.47
12.75
11.74
10.50
9.20
8.10
7.36
7.03
7.00
7.05
6.94
6.48
5.52
3.98
1.80
-0.98
-4.16
-7.35
-10.05
-11.76
-12.18
-11.34
-9.54
-7.21
-4.75
-2.39
-0.16
1.94
3.90
5.60
6.86
7.57
7.74
7.51
7.10
6.69
6.36
6.12
5.88
5.53
4.94
3.99
2.63
0.88
-1.11
-3.12
-4.94
-6.43
-7.58
-8.47
-9.25
-10.12
-11.24
-12.81
-14.94
-17.63
-20.65
-23.51
-25.55
-26.15
-24.92
-21.93
-17.63
-12.70
-7.77
-3.23
0.82
4.47
7.83
10.85
13.35
15.13
16.11
16.39
16.17
15.70
15.10
14.38
13.47
12.32
10.93
9.43
7.97
6.65
5.53
4.58
3.71
2.83
1.83
0.66
-0.72
-2.28
-3.96
-5.67
-7.38
-9.10
-10.91
-12.91
-15.18
-17.69
-20.35
-22.92
-25.06
-26.38
-26.48
-25.03
-21.99
-17.55
-12.21
-6.63
-1.37
3.20
7.01
10.18
12.94
15.38
17.44
18.99
19.91
20.21
20.03
19.60
19.07
18.51
17.86
17.03
15.97
14.70
13.34
12.02
10.83
9.78
8.82
7.75
6.44
4.74
2.66
0.36
-1.90
-3.91
-5.55
-6.89
-8.14
-9.54
-11.26
-13.35
-15.72
-18.19
-20.47
-22.20
-22.97
-22.42
-20.40
-17.01
-12.64
-7.84
-3.13
1.14
4.81
7.93
10.62
13.00
15.09
16.85
18.15
18.83
18.82
18.18
17.06
15.71
14.36
13.16
12.10
11.16
10.28
9.48
8.81
8.29
7.84
7.26
6.34
4.92
3.00
0.77
-1.50
-3.57
-5.28
-6.67
-7.87
-9.11
-10.60
-12.48
-14.81
-17.51
-20.35
-22.91
-24.68
-25.15
-24.00
-21.25
-17.28
-12.66
-7.99
-3.70
0.06
3.28
6.03
8.34
10.13
11.30
11.86
11.91
11.65
11.24
10.77
10.23
9.56
8.72
7.76
6.83
6.14
5.79
5.76
5.84
5.76
5.24
4.14
2.54
0.62
-1.39
-3.27
-4.94
-6.44
-7.89
-9.43
-11.23
-13.36
-15.75
-18.19
-20.29
-21.62
-21.79
-20.62
-18.13
-14.59
-10.37
-5.90
-1.57
2.34
5.65
8.28
10.25
11.65
12.56
13.05
13.16
12.95
12.47
11.78
10.97
10.05
9.06
8.00
6.92
5.86
4.87
3.97
3.13
2.28
1.38
0.38
-0.74
-1.98
-3.36
-4.89
-6.57
-8.39
-10.35
-12.42
-14.51
-16.42
-17.84
-18.38
-17.73
-15.78
-12.67
-8.81
-4.67
-0.68
2.88
5.86
8.23
9.95
11.05
11.55
11.56
11.21
10.67
10.01
9.30
8.53
7.68
6.78
5.86
4.97
4.11
3.29
2.48
1.63
0.70
-0.34
-1.50
-2.81
-4.22
-5.72
-7.24
-8.81
-10.49
-12.40
-14.61
-16.99
-19.18
-20.69
-20.98
-19.77
-17.11
-13.38
-9.12
-4.82
-0.79
2.83
6.04
8.79
11.01
12.58
13.49
13.84
13.81
13.58
13.22
12.69
11.93
10.94
9.84
8.77
7.84
7.04
6.22
5.22
3.94
2.42
0.75
-0.95
-2.60
-4.19
-5.73
-7.26
-8.80
-10.40
-12.14
-14.04
-15.98
-17.72
-18.86
-18.98
-17.78
-15.22
-11.48
-6.98
-2.21
2.37
6.38
9.58
11.91
13.43
14.29
14.67
14.71
14.49
14.05
13.40
12.63
11.85
11.13
10.51
9.90
9.15
8.14
6.85
5.38
3.92
2.60
1.45
0.35
-0.86
-2.32
-4.03
-5.92
-7.88
-9.85
-11.84
-13.89
-16.01
-18.07
-19.76
-20.65
-20.35
-18.63
-15.53
-11.39
-6.71
-1.99
2.38
6.24
9.51
12.21
14.33
15.80
16.62
16.82
16.53
15.88
15.01
13.97
12.79
11.51
10.22
9.02
7.99
7.15
6.44
5.74
4.96
4.03
2.93
1.66
0.20
-1.46
-3.30
-5.30
-7.41
-9.62
-11.90
-14.18
-16.27
-17.82
-18.42
-17.71
-15.58
-12.25
-8.20
-4.01
-0.16
3.12
5.80
7.97
9.67
10.87
11.49
11.53
11.07
10.32
9.48
8.72
8.04
7.40
6.70
5.91
5.06
4.23
3.48
2.83
2.21
1.54
0.76
-0.16
-1.23
-2.47
-3.95
-5.71
-7.80
-10.19
-12.68
-14.96
-16.65
-17.33
-16.72
-14.75
-11.60
-7.68
-3.53
0.39
3.77
6.51
8.68
10.40
11.74
12.70
13.24
13.33
13.03
12.44
11.70
10.88
10.01
9.07
8.04
6.94
5.82
4.79
3.88
3.06
2.22
1.26
0.08
-1.29
-2.74
-4.15
-5.46
-6.74
-8.10
-9.67
-11.40
-13.03
-14.15
-14.38
-13.52
-11.65
-9.12
-6.39
-3.84
-1.67
0.15
1.76
3.29
4.77
6.13
7.20
7.82
7.86
7.32
6.33
5.05
3.72
2.49
1.41
0.42
-0.62
-1.82
-3.27
-4.93
-6.72
-8.53
-10.26
-11.85
-13.28
-14.54
-15.67
-16.72
-17.73
-18.74
-19.71
-20.48
-20.81
-20.43
-19.09
-16.68
-13.22
-8.92
-4.09
0.85
5.52
9.60
12.88
15.33
16.98
17.97
18.44
18.52
18.27
17.75
17.00
16.06
14.96
13.69
12.24
10.63
8.97
7.37
5.95
4.75
3.73
2.78
1.82
0.81
-0.24
-1.27
-2.33
-3.54
-5.09
-7.16
-9.79
-12.73
-15.51
-17.50
-18.18
-17.25
-14.79
-11.20
-6.99
-2.67
1.45
5.18
8.45
11.21
13.38
14.92
15.89
16.37
16.53
16.48
16.26
15.89
15.35
14.68
13.92
13.12
12.28
11.42
10.54
9.67
8.89
8.23
7.62
6.94
6.04
4.80
3.25
1.50
-0.34
-2.18
-4.10
-6.23
-8.73
-11.67
-14.92
-18.13
-20.80
-22.40
-22.53
-21.03
-18.09
-14.10
-9.62
-5.13
-1.04
2.47
5.34
7.61
9.30
10.44
11.02
11.05
10.60
9.83
8.91
8.03
7.32
6.78
6.31
5.81
5.21
4.51
3.76
3.00
2.20
1.32
0.29
-0.85
-2.04
-3.18
-4.25
-5.27
-6.37
-7.67
-9.24
-11.01
-12.74
-14.07
-14.62
-14.11
-12.45
-9.81
-6.50
-2.93
0.54
3.67
6.36
8.53
10.13
11.11
11.46
11.31
10.90
10.44
10.10
9.84
9.51
8.93
7.98
6.73
5.35
4.07
3.03
2.25
1.67
1.13
0.55
-0.17
-1.07
-2.22
-3.63
-5.33
-7.28
-9.42
-11.67
-13.92
-16.01
-17.70
-18.67
-18.59
-17.25
-14.64
-11.03
-6.87
-2.68
1.12
4.31
6.85
8.83
10.33
11.38
12.00
12.19
12.01
11.57
10.95
10.23
9.38
8.38
7.22
5.98
4.76
3.63
2.60
1.60
0.54
-0.70
-2.16
-3.86
-5.84
-8.11
-10.66
-13.43
-16.29
-19.10
-21.74
-24.07
-25.91
-27.03
-27.10
-25.86
-23.25
-19.47
-14.99
-10.35
-5.96
-2.02
1.47
4.59
7.32
9.52
11.01
11.66
11.56
10.93
10.05
9.14
8.26
7.39
6.51
5.64
4.84
4.11
3.37
2.50
1.40
0.11
-1.22
-2.48
-3.62
-4.76
-6.05
-7.64
-9.56
-11.71
-13.95
-16.12
-17.98
-19.28
-19.69
-18.90
-16.76
-13.42
-9.26
-4.83
-0.64
2.96
5.87
8.13
9.88
11.20
12.15
12.71
12.85
12.56
11.89
10.97
9.98
9.07
8.29
7.57
6.80
5.90
4.84
3.70
2.58
1.50
0.38
-0.90
-2.46
-4.31
-6.37
-8.54
-10.79
-13.07
-15.31
-17.32
-18.77
-19.26
-18.54
-16.59
-13.67
-10.22
-6.65
-3.25
-0.09
2.83
5.52
7.84
9.59
10.56
10.71
10.21
9.36
8.46
7.68
7.05
6.48
5.89
5.27
4.64
4.05
3.48
2.91
2.25
1.50
0.67
-0.23
-1.22
-2.39
-3.90
-5.84
-8.22
-10.87
-13.48
-15.63
-16.88
-16.87
-15.45
-12.74
-9.06
-4.94
-0.90
2.67
5.60
7.93
9.82
11.43
12.81
13.89
14.58
14.77
14.50
13.86
13.02
12.07
11.07
10.03
8.94
7.78
6.49
4.99
3.25
1.29
-0.78
-2.80
-4.67
-6.43
-8.24
-10.30
-12.70
-15.31
-17.77
-19.61
-20.38
-19.82
-17.94
-14.97
-11.31
-7.34
-3.42
0.24
3.58
6.56
9.16
11.29
12.86
13.83
14.25
14.27
14.08
13.81
13.50
13.10
12.51
11.68
10.65
9.50
8.34
7.23
6.17
5.10
3.98
2.80
1.55
0.22
-1.27
-3.05
-5.24
-7.84
-10.64
-13.27
-15.23
-16.12
-15.71
-14.01
-11.22
-7.63
-3.55
0.72
4.92
8.79
12.13
14.80
16.78
18.09
18.78
18.92
18.54
17.73
16.63
15.41
14.19
13.01
11.80
10.49
9.03
7.45
5.82
4.26
2.79
1.41
0.05
-1.35
-2.89
-4.66
-6.76
-9.20
-11.83
-14.35
-16.30
-17.23
-16.87
-15.20
-12.49
-9.10
-5.45
-1.81
1.61
4.70
7.33
9.36
10.68
11.29
11.27
10.83
10.17
9.45
8.74
8.03
7.23
6.26
5.05
3.58
1.92
0.20
-1.45
-2.90
-4.12
-5.19
-6.27
-7.51
-9.02
-10.78
-12.70
-14.60
-16.25
-17.38
-17.68
-16.90
-14.91
-11.79
-7.84
-3.47
0.87
4.88
8.42
11.45
13.93
15.79
16.91
17.21
16.74
15.66
14.21
12.56
10.81
8.99
7.09
5.16
3.30
1.59
0.11
-1.18
-2.33
-3.46
-4.66
-6.05
-7.75
-9.86
-12.40
-15.20
-17.90
-19.99
-21.01
-20.67
-18.99
-16.24
-12.79
-8.99
-5.02
-0.98
3.02
6.82
10.14
12.73
14.40
15.17
15.19
14.66
13.82
12.81
11.68
10.45
9.08
7.55
5.86
4.07
2.32
0.79
-0.43
-1.35
-2.16
-3.15
-4.61
-6.68
-9.32
-12.31
-15.23
-17.63
-19.05
-19.14
-17.76
-14.98
-11.13
-6.61
-1.89
2.67
6.83
10.46
13.46
15.71
17.12
17.63
17.29
16.29
14.91
13.40
11.93
10.49
8.96
7.24
5.28
3.21
1.24
-0.46
-1.81
-2.91
-4.01
-5.33
-7.10
-9.39
-12.16
-15.24
-18.34
-21.07
-22.95
-23.59
-22.73
-20.35
-16.71
-12.22
-7.38
-2.59
1.87
5.82
9.17
11.82
13.71
14.77
15.04
14.65
13.76
12.57
11.19
9.69
8.08
6.37
4.57
2.73
0.91
-0.85
-2.47
-3.91
-5.13
-6.11
-6.95
-7.87
-9.17
-11.15
-13.92
-17.22
-20.43
-22.71
-23.32
-21.93
-18.70
-14.25
-9.34
-4.55
-0.18
3.77
7.37
10.59
13.23
15.05
15.90
15.80
14.94
13.62
12.08
10.47
8.89
7.32
5.76
4.20
2.61
1.00
-0.60
-2.12
-3.51
-4.76
-5.93
-7.18
-8.74
-10.77
-13.35
-16.36
-19.44
-22.06
-23.62
-23.66
-21.94
-18.59
-14.04
-8.85
-3.53
1.51
6.12
10.22
13.75
16.63
18.72
19.91
20.23
19.85
19.03
17.99
16.92
15.83
14.68
13.37
11.82
10.01
7.99
5.86
3.75
1.80
0.11
-1.35
-2.69
-4.16
-6.04
-8.53
-11.66
-15.22
-18.84
-21.99
-24.10
-24.72
-23.56
-20.63
-16.20
-10.78
-4.96
0.74
5.99
10.63
14.66
18.08
20.86
22.88
24.05
24.34
23.83
22.72
21.25
19.63
17.99
16.37
14.79
13.23
11.70
10.18
8.63
7.05
5.40
3.66
1.85
-0.09
-2.19
-4.51
-7.14
-10.13
-13.43
-16.84
-19.95
-22.24
-23.16
-22.30
-19.60
-15.34
-10.07
-4.43
1.04
6.01
10.34
14.00
16.99
19.26
20.77
21.52
21.53
20.87
19.68
18.09
16.30
14.50
12.85
11.42
10.18
9.03
7.83
6.52
5.09
3.60
2.13
0.69
-0.74
-2.23
-3.85
-5.65
-7.67
-9.97
-12.57
-15.40
-18.21
-20.56
-21.86
-21.56
-19.38
-15.49
-10.43
-4.96
0.21
4.68
8.38
11.41
13.89
15.78
16.94
17.24
16.69
15.53
14.09
12.71
11.51
10.44
9.33
8.02
6.47
4.75
3.00
1.33
-0.21
-1.69
-3.16
-4.68
-6.27
-7.98
-9.91
-12.15
-14.80
-17.73
-20.59
-22.83
-23.81
-23.13
-20.71
-16.83
-12.06
-7.01
-2.18
2.12
5.77
8.76
11.15
12.96
14.23
14.98
15.21
14.94
14.20
13.09
11.78
10.48
9.37
8.49
7.77
7.02
6.06
4.82
3.37
1.87
0.47
-0.75
-1.81
-2.86
-4.09
-5.74
-8.04
-11.02
-14.53
-18.07
-20.93
-22.29
-21.52
-18.44
-13.47
-7.55
-1.95
2.16
3.95
3.22
0.31
-3.92
-8.43
-12.22
-14.60
-15.33
-14.61
-12.92
-10.81
-8.64
-6.48
-4.08
-1.06
2.93
7.98
13.92
20.30
26.53
31.90
35.66
37.09
35.54
30.67
22.60
12.02
0.08
-11.83
-22.52
-31.18
-37.58
-41.91
-44.66
-46.42
-47.84
-49.58
-52.20
-56.02
-60.95
-66.43
-71.59
-75.58
-77.83
-78.22
-77.11
-75.13
-72.99
-71.21
-70.00
-69.19
-68.29
-66.59
-63.43
-58.30
-50.99
-41.62
-30.54
-18.20
-5.09
8.34
21.63
34.35
46.12
56.63
65.70
73.30
79.55
84.80
89.52
94.25
99.37
104.95
110.63
115.76
119.69
122.03
122.94
123.03
123.09
123.67
124.88
126.35
127.46
127.63
126.51
123.92
119.88
114.45
107.88
100.66
93.48
87.08
81.90
77.85
74.35
70.58
65.86
59.85
52.61
44.45
35.71
26.72
17.69
8.80
0.19
-8.12
-16.15
-23.97
-31.65
-39.20
-46.66
-54.01
-61.21
-68.06
-74.23
-79.26
-82.76
-84.58
-84.94
-84.36
-83.37
-82.28
-81.07
-79.52
-77.38
-74.61
-71.34
-67.82
-64.19
-60.48
-56.68
-52.87
-49.33
-46.45
-44.60
-43.92
-44.34
-45.59
-47.36
-49.22
-50.69
-51.15
-50.03
-47.07
-42.47
-36.94
-31.38
-26.61
-23.05
-20.73
-19.52
-19.23
-19.79
-21.07
-22.81
-24.55
-25.79
-26.20
-25.81
-24.95
-24.05
-23.40
-23.03
-22.74
-22.28
-21.50
-20.43
-19.22
-17.96
-16.56
-14.78
-12.37
-9.29
-5.76
-2.18
1.10
4.09
7.15
10.86
15.66
21.62
28.36
35.17
41.32
46.33
50.07
52.70
54.47
55.53
55.82
55.08
53.00
49.37
44.21
37.80
30.64
23.32
16.45
10.59
6.18
3.41
2.12
1.72
1.37
0.18
-2.36
-6.20
-10.76
-15.21
-18.93
-21.67
-23.64
-25.20
-26.56
-27.59
-27.90
-27.04
-24.83
-21.44
-17.36
-13.20
-9.36
-5.93
-2.75
0.39
3.56
6.53
8.90
10.31
10.67
10.16
9.18
8.12
7.15
6.26
5.28
4.13
2.88
1.66
0.61
-0.28
-1.09
-2.00
-3.06
-4.23
-5.38
-6.44
-7.44
-8.53
-9.93
-11.75
-13.87
-15.95
-17.46
-17.89
-16.90
-14.50
-10.99
-6.91
-2.80
0.98
4.29
7.15
9.61
11.68
13.26
14.23
14.56
14.33
13.73
12.98
12.22
11.46
10.69
9.79
8.73
7.49
6.17
4.88
3.71
2.72
1.85
0.99
-0.01
-1.26
-2.84
-4.77
-6.99
-9.39
-11.75
-13.80
-15.23
-15.70
-15.01
-13.13
-10.21
-6.62
-2.79
0.87
4.05
6.61
8.53
9.83
10.56
10.75
10.44
9.73
8.79
7.81
6.89
6.04
5.12
4.02
2.72
1.30
-0.06
-1.21
-2.13
-2.92
-3.76
-4.78
-6.05
-7.56
-9.26
-11.11
-13.02
-14.85
-16.35
-17.20
-17.10
-15.94
-13.81
-11.02
-7.95
-4.97
-2.34
-0.11
1.73
3.24
4.40
5.12
5.26
4.75
3.68
2.29
0.89
-0.27
-1.09
-1.68
-2.21
-2.84
-3.60
-4.36
-4.93
-5.15
-5.05
-4.76
-4.57
-4.77
-5.58
-7.11
-9.30
-11.90
-14.51
-16.63
-17.77
-17.58
-15.97
-13.16
-9.56
-5.64
-1.77
1.84
5.16
8.20
10.92
13.16
14.75
15.57
15.67
15.28
14.70
14.21
13.87
13.59
13.19
12.49
11.48
10.30
9.20
8.34
7.77
7.33
6.74
5.69
3.97
1.49
-1.67
-5.27
-8.94
-12.20
-14.56
-15.60
-15.14
-13.28
-10.36
-6.88
-3.27
0.19
3.44
6.49
9.33
11.85
13.85
15.18
15.81
15.89
15.61
15.15
14.58
13.84
12.85
11.60
10.20
8.84
7.72
6.93
6.42
6.02
5.51
4.72
3.54
1.89
-0.23
-2.82
-5.77
-8.80
-11.49
-13.30
-13.74
-12.57
-9.85
-5.96
-1.42
3.20
7.51
11.31
14.48
17.00
18.82
19.92
20.30
20.02
19.17
17.85
16.20
14.36
12.47
10.67
9.03
7.56
6.19
4.86
3.54
2.25
1.06
0.00
-1.02
-2.15
-3.58
-5.45
-7.73
-10.25
-12.69
-14.70
-15.92
-16.09
-15.10
-12.98
-9.95
-6.30
-2.41
1.38
4.75
7.52
9.55
10.76
11.14
10.76
9.77
8.37
6.80
5.28
3.96
2.87
2.00
1.25
0.54
-0.23
-1.12
-2.14
-3.27
-4.48
-5.75
-7.13
-8.69
-10.55
-12.77
-15.21
-17.56
-19.34
-20.04
-19.27
-16.94
-13.30
-8.86
-4.18
0.26
4.21
7.61
10.49
12.82
14.44
15.11
14.74
13.42
11.53
9.51
7.71
6.29
5.12
3.99
2.75
1.35
-0.08
-1.39
-2.48
-3.36
-4.15
-5.07
-6.34
-8.13
-10.51
-13.35
-16.32
-18.91
-20.60
-20.96
-19.79
-17.19
-13.55
-9.38
-5.25
-1.59
1.40
3.74
5.61
7.18
8.51
9.55
10.17
10.29
9.96
9.34
8.63
7.93
7.21
6.32
5.16
3.76
2.32
1.10
0.28
-0.16
-0.44
-0.88
-1.79
-3.33
-5.45
-7.90
-10.32
-12.23
-13.21
-12.91
-11.24
-8.36
-4.62
-0.51
3.55
7.26
10.44
13.02
14.93
16.07
16.44
16.12
15.31
14.30
13.34
12.54
11.85
11.10
10.10
8.75
7.10
5.30
3.53
1.90
0.43
-0.99
-2.52
-4.34
-6.53
-9.10
-11.97
-14.92
-17.64
-19.72
-20.74
-20.39
-18.58
-15.47
-11.45
-7.01
-2.62
1.38
4.78
7.56
9.71
11.28
12.26
12.62
12.37
11.57
10.35
8.89
7.34
5.82
4.33
2.91
1.55
0.33
-0.71
-1.55
-2.31
-3.19
-4.44
-6.22
-8.55
-11.31
-14.20
-16.86
-18.89
-19.94
-19.74
-18.18
-15.36
-11.58
-7.26
-2.84
1.36
5.09
8.27
10.82
12.72
13.90
14.35
14.13
13.35
12.23
10.99
9.80
8.73
7.76
6.80
5.79
4.73
3.62
2.54
1.50
0.52
-0.44
-1.41
-2.48
-3.77
-5.46
-7.67
-10.35
-13.17
-15.55
-16.82
-16.49
-14.43
-10.90
-6.44
-1.63
3.08
7.40
11.21
14.42
16.95
18.74
19.73
19.96
19.51
18.53
17.22
15.78
14.38
13.12
11.96
10.75
9.34
7.64
5.75
3.84
2.09
0.59
-0.77
-2.17
-3.80
-5.79
-8.11
-10.67
-13.37
-16.09
-18.68
-20.90
-22.40
-22.77
-21.70
-19.10
-15.16
-10.34
-5.21
-0.27
4.12
7.78
10.69
12.87
14.37
15.19
15.38
14.99
14.13
12.88
11.36
9.64
7.82
5.96
4.18
2.59
1.29
0.30
-0.49
-1.26
-2.22
-3.52
-5.19
-7.07
-8.92
-10.53
-11.82
-12.98
-14.27
-16.02
-18.34
-21.08
-23.87
-26.18
-27.54
-27.62
-26.29
-23.55
-19.53
-14.46
-8.69
-2.72
2.93
7.83
11.75
14.72
16.91
18.54
19.74
20.52
20.80
20.56
19.85
18.77
17.45
15.98
14.46
12.95
11.57
10.41
9.50
8.74
7.93
6.84
5.33
3.43
1.29
-0.89
-3.00
-5.01
-6.99
-9.02
-11.20
-13.59
-16.20
-18.95
-21.57
-23.63
-24.58
-23.93
-21.44
-17.28
-11.96
-6.18
-0.60
4.36
8.53
11.95
14.70
16.86
18.44
19.47
19.97
19.94
19.41
18.41
17.03
15.44
13.88
12.59
11.67
11.10
10.68
10.18
9.44
8.40
7.08
5.58
3.94
2.18
0.35
-1.49
-3.25
-4.86
-6.34
-7.77
-9.30
-11.08
-13.21
-15.71
-18.48
-21.30
-23.79
-25.51
-26.02
-25.07
-22.66
-19.09
-14.81
-10.26
-5.79
-1.57
2.30
5.72
8.58
10.73
12.14
12.87
13.12
13.07
12.89
12.62
12.28
11.89
11.50
11.19
11.01
10.94
10.91
10.79
10.51
9.99
9.23
8.20
6.88
5.24
3.29
1.09
-1.23
-3.54
-5.69
-7.60
-9.30
-10.89
-12.55
-14.47
-16.72
-19.17
-21.51
-23.27
-23.99
-23.33
-21.19
-17.70
-13.20
-8.10
-2.85
2.15
6.56
10.17
12.92
14.88
16.18
17.00
17.44
17.59
17.46
17.09
16.51
15.77
14.93
14.04
13.12
12.23
11.40
10.65
9.92
9.13
8.19
7.02
5.62
4.05
2.42
0.82
-0.67
-2.05
-3.40
-4.83
-6.49
-8.47
-10.86
-13.60
-16.58
-19.56
-22.17
-24.02
-24.72
-24.00
-21.82
-18.37
-14.03
-9.31
-4.65
-0.42
3.22
6.21
8.59
10.40
11.69
12.51
12.91
12.94
12.62
12.01
11.12
10.02
8.84
7.74
6.92
6.47
6.36
6.42
6.41
6.17
5.60
4.75
3.72
2.59
1.39
0.13
-1.18
-2.52
-3.94
-5.53
-7.40
-9.63
-12.08
-14.40
-16.06
-16.56
-15.63
-13.33
-10.04
-6.24
-2.36
1.36
4.83
8.03
10.90
13.30
15.03
15.96
16.10
15.58
14.64
13.57
12.60
11.83
11.27
10.81
10.33
9.72
8.93
7.99
6.95
5.86
4.74
3.57
2.29
0.86
-0.73
-2.46
-4.29
-6.17
-8.05
-9.92
-11.81
-13.77
-15.90
-18.21
-20.59
-22.78
-24.37
-24.91
-24.10
-21.86
-18.41
-14.16
-9.60
-5.14
-1.04
2.57
5.64
8.15
10.05
11.33
12.00
12.14
11.90
11.40
10.76
10.03
9.26
8.48
7.73
7.05
6.47
6.03
5.71
5.49
5.28
4.96
4.38
3.44
2.09
0.41
-1.48
-3.43
-5.32
-7.05
-8.63
-10.14
-11.72
-13.52
-15.57
-17.75
-19.72
-21.01
-21.19
-19.99
-17.42
-13.78
-9.55
-5.19
-1.12
2.46
5.48
7.95
9.92
11.37
12.29
12.67
12.58
12.15
11.55
10.89
10.20
9.42
8.46
7.30
5.99
4.65
3.41
2.31
1.34
0.38
-0.69
-1.95
-3.41
-4.96
-6.48
-7.81
-8.92
-9.88
-10.87
-12.12
-13.80
-15.89
-18.17
-20.22
-21.54
-21.71
-20.51
-17.97
-14.34
-10.05
-5.56
-1.28
2.47
5.55
7.93
9.68
10.90
11.68
12.06
12.06
11.71
11.11
10.38
9.69
9.20
9.00
9.03
9.17
9.18
8.83
7.94
6.54
4.79
2.98
1.38
0.07
-1.08
-2.34
-3.96
-6.02
-8.37
-10.69
-12.66
-13.96
-14.44
-13.93
-12.36
-9.74
-6.31
-2.58
0.75
3.04
3.98
3.68
2.66
1.48
0.50
-0.27
-1.06
-2.19
-3.79
-5.77
-7.91
-9.98
-11.92
-13.78
-15.63
-17.47
-19.19
-20.58
-21.51
-21.91
-21.82
-21.25
-20.22
-18.70
-16.69
-14.29
-11.64
-8.93
-6.29
-3.72
-1.08
1.82
5.13
8.89
12.96
17.05
20.65
23.16
24.00
22.74
19.34
14.18
8.08
1.97
-3.34
-7.52
-10.73
-13.47
-16.28
-19.39
-22.69
-25.80
-28.36
-30.27
-31.73
-33.16
-34.88
-37.01
-39.38
-41.77
-44.07
-46.42
-49.05
-52.15
-55.68
-59.36
-62.78
-65.56
-67.56
-68.95
-70.12
-71.55
-73.61
-76.32
-79.28
-81.62
-82.20
-79.94
-74.17
-64.83
-52.47
-38.07
-22.69
-7.24
7.66
21.58
34.22
45.34
54.79
62.59
68.90
74.00
78.18
81.66
84.58
87.10
89.40
91.69
94.19
96.98
100.05
103.30
106.59
109.83
112.91
115.61
117.65
118.65
118.34
116.68
113.98
110.87
108.13
106.47
106.27
107.51
109.79
112.46
114.76
115.94
115.40
112.89
108.58
103.13
97.41
92.15
87.51
82.90
77.13
68.94
57.65
43.48
27.62
11.70
-2.80
-15.01
-24.81
-32.65
-39.21
-45.06
-50.51
-55.62
-60.26
-64.24
-67.35
-69.41
-70.30
-70.07
-68.86
-66.99
-64.83
-62.67
-60.62
-58.55
-56.08
-52.79
-48.33
-42.63
-35.95
-28.90
-22.26
-16.76
-12.96
-11.10
-11.18
-13.04
-16.47
-21.20
-26.81
-32.63
-37.83
-41.60
-43.46
-43.52
-42.44
-41.11
-40.29
-40.23
-40.61
-40.86
-40.47
