1659768236.00
64.000000
-0.00
-0.00
-0.00
-0.00
-0.00
-0.00
-0.00
-0.00
-0.00
-0.00
0.00
0.01
0.01
-0.00
-0.03
-0.05
-0.05
0.00
0.13
0.36
0.66
1.01
1.37
1.72
2.06
2.40
2.79
3.24
3.80
4.42
5.06
5.66
6.20
6.68
7.15
7.68
8.31
9.14
10.09
11.04
11.88
12.56
13.14
13.76
14.65
15.96
17.91
20.32
22.90
25.38
27.58
29.57
31.68
34.32
37.81
42.54
48.15
54.10
59.83
64.97
69.58
74.14
79.34
85.71
93.76
103.00
112.62
121.73
129.77
136.75
143.30
150.75
157.77
166.64
177.95
191.79
206.97
220.57
228.25
225.36
208.53
176.87
132.76
80.05
23.07
-34.94
-92.44
-149.16
-205.23
-260.37
-313.74
-363.87
-409.83
-450.91
-486.50
-515.74
-537.23
-549.22
-549.96
-538.37
-514.21
-478.67
-433.88
-382.45
-327.02
-269.84
-212.63
-156.66
-102.95
-52.37
-5.90
35.58
71.43
101.35
125.50
144.38
158.69
169.15
176.37
180.75
182.57
182.07
179.51
175.23
169.65
163.18
156.15
148.81
141.30
133.69
126.02
118.33
110.69
103.16
95.80
88.68
81.83
75.25
68.95
62.95
57.25
51.86
46.78
42.02
37.59
33.46
29.64
26.11
22.83
19.80
17.02
14.48
12.22
10.23
8.51
7.04
5.78
4.69
3.73
2.87
2.12
1.49
0.97
0.58
0.29
0.08
-0.12
-0.33
-0.58
-0.85
-1.09
-1.26
-1.32
-1.30
-1.26
-1.32
-1.56
-2.00
-2.56
-3.09
-3.43
-3.51
-3.38
-3.22
-3.26
-3.68
-4.53
-5.64
-6.72
-7.49
-7.81
-7.74
-7.58
-7.70
-8.38
-9.67
-11.35
-13.02
-14.32
-15.01
-15.15
-14.96
-14.77
-14.91
-15.71
-17.54
-20.52
-24.31
-27.73
-28.97
-26.16
-18.37
-6.36
7.50
20.05
28.71
32.52
32.32
29.96
27.26
25.41
24.92
26.15
29.56
35.38
42.96
50.49
55.43
55.64
50.78
42.46
33.76
27.65
25.59
27.03
29.86
31.70
30.83
27.05
21.31
14.94
9.09
4.31
0.45
-3.24
-7.48
-12.82
-19.42
-27.19
-35.81
-44.48
-51.64
-54.88
-51.67
-40.66
-23.31
-4.07
10.91
16.52
11.18
-2.37
-18.55
-31.67
-38.14
-37.43
-31.27
-22.22
-12.48
-3.14
5.65
14.58
24.60
36.20
48.67
59.94
67.23
68.22
62.19
50.17
34.10
15.57
-4.40
-24.48
-41.73
-51.28
-47.89
-28.86
3.52
41.96
76.78
99.85
107.66
102.24
89.25
75.06
64.00
57.15
52.86
48.37
41.04
29.03
11.22
-13.39
-44.49
-80.67
-118.94
-155.01
-184.42
-204.11
-213.45
-214.28
-209.83
-203.30
-197.02
-192.08
-188.72
-186.71
-185.54
-184.31
-181.56
-175.26
-163.23
-143.76
-116.18
-81.05
-40.14
3.70
46.96
85.86
116.97
137.99
148.23
148.82
142.48
132.88
123.68
117.69
116.42
119.97
127.41
137.22
147.66
157.03
164.11
168.42
170.41
171.09
171.06
169.47
163.64
149.78
124.63
87.54
41.57
-6.66
-48.89
-78.17
-91.39
-90.41
-81.10
-70.65
-64.29
-63.24
-64.53
-63.02
-54.33
-37.17
-13.98
10.43
31.24
45.77
54.24
59.02
62.93
67.58
72.66
76.50
77.34
74.56
69.23
63.54
59.50
57.75
57.19
55.54
50.47
40.51
25.15
4.50
-21.15
-51.01
-83.38
-115.26
-142.84
-162.87
-173.93
-177.01
-174.80
-169.96
-163.63
-154.91
-141.53
-121.35
-93.61
-59.43
-21.18
18.50
57.56
94.73
129.09
159.71
185.49
205.51
219.46
227.99
232.25
233.46
232.37
229.00
222.67
212.32
196.68
174.38
144.37
106.75
63.56
19.08
-20.86
-50.91
-68.43
-74.97
-75.72
-76.88
-82.49
-92.22
-101.89
-106.06
-101.60
-89.76
-75.69
-65.59
-63.41
-68.85
-78.05
-86.09
-89.75
-88.81
-85.52
-82.69
-81.72
-82.15
-82.34
-80.92
-77.68
-73.68
-70.57
-69.48
-70.44
-72.40
-73.73
-73.06
-69.86
-64.63
-58.67
-53.57
-50.57
-50.13
-51.79
-54.29
-56.14
-56.03
-53.38
-48.39
-41.95
-35.21
-29.10
-24.03
-19.88
-16.30
-13.06
-10.30
-8.36
-7.61
-8.13
-9.59
-11.52
-13.51
-15.40
-17.14
-18.67
-19.75
-20.07
-19.40
-17.76
-15.49
-13.10
-11.08
-9.65
-8.79
-8.18
-7.27
-5.37
-1.82
3.77
11.28
19.94
28.59
35.92
41.05
43.69
44.25
43.56
42.48
41.65
41.32
41.55
42.21
43.24
44.52
45.82
46.79
46.92
45.78
43.11
39.05
34.01
28.60
23.33
18.47
13.96
9.52
4.99
0.46
-3.56
-6.40
-7.39
-6.30
-3.46
0.39
4.33
7.65
10.02
11.45
12.05
11.93
11.02
9.25
6.72
3.76
0.86
-1.56
-3.27
-4.29
-4.79
-4.96
-4.95
-4.73
-4.32
-3.76
-3.23
-2.96
-3.25
-4.34
-6.39
-9.41
-13.11
-16.97
-20.22
-22.08
-21.97
-19.78
-15.89
-11.06
-6.15
-1.84
1.45
3.65
4.83
5.20
4.93
4.24
3.35
2.45
1.70
1.16
0.78
0.48
0.15
-0.31
-0.91
-1.60
-2.30
-2.90
-3.44
-4.02
-4.83
-6.01
-7.46
-8.84
-9.62
-9.31
-7.65
-4.76
-1.08
2.81
6.38
9.30
11.39
12.57
12.81
12.10
10.52
8.29
5.76
3.34
1.30
-0.24
-1.39
-2.32
-3.19
-3.95
-4.43
-4.40
-3.76
-2.66
-1.50
-0.86
-1.20
-2.76
-5.32
-8.31
-10.96
-12.52
-12.47
-10.69
-7.41
-3.13
1.55
6.05
9.94
12.89
14.73
15.44
15.12
14.01
12.43
10.72
9.11
7.70
6.43
5.14
3.74
2.20
0.60
-0.94
-2.34
-3.56
-4.59
-5.49
-6.37
-7.42
-8.80
-10.61
-12.65
-14.46
-15.37
-14.82
-12.58
-8.90
-4.38
0.27
4.50
7.98
10.54
12.15
12.72
12.25
10.84
8.76
6.35
4.01
2.05
0.58
-0.39
-1.06
-1.64
-2.41
-3.50
-4.92
-6.50
-8.03
-9.37
-10.54
-11.75
-13.15
-14.78
-16.41
-17.55
-17.70
-16.47
-13.78
-9.86
-5.24
-0.49
3.89
7.64
10.78
13.44
15.76
17.73
19.21
20.03
20.20
19.96
19.75
19.96
20.66
21.57
22.20
22.18
21.56
20.82
20.46
20.53
20.22
17.99
12.16
1.82
-12.49
-28.77
-44.20
-55.92
-61.73
-60.37
-51.59
-36.02
-15.31
7.95
30.55
49.29
62.03
68.45
70.29
70.54
72.10
76.48
83.25
90.59
96.53
100.21
102.47
105.59
112.09
123.36
138.65
155.18
169.13
177.12
177.32
169.80
156.38
140.08
124.34
112.08
104.73
101.44
99.01
92.90
78.83
54.66
20.99
-19.27
-62.60
-106.31
-149.11
-190.43
-229.36
-263.91
-291.35
-309.02
-315.07
-308.61
-289.67
-259.16
-219.24
-173.50
-126.71
-83.81
-48.54
-22.63
-5.99
2.10
1.83
-7.52
-26.94
-56.44
-94.16
-136.25
-177.55
-212.71
-237.32
-248.57
-245.56
-229.27
-202.21
-167.75
-129.61
-91.39
-56.30
-26.86
-4.60
10.36
19.44
25.23
30.67
37.76
46.82
56.41
64.27
68.46
68.31
64.52
58.54
51.81
45.23
39.25
34.06
29.91
27.04
25.40
24.67
24.27
23.66
22.64
21.34
20.08
19.05
18.29
17.77
17.70
18.52
20.75
24.69
30.16
36.59
43.30
49.71
55.38
59.97
63.08
64.33
63.54
60.90
57.02
52.83
49.24
46.95
46.19
46.77
48.09
49.36
49.71
48.57
46.01
42.87
40.64
40.94
44.68
51.53
60.01
68.35
75.54
82.18
90.04
100.78
114.48
128.70
139.27
142.26
136.01
121.95
103.68
85.20
69.52
58.39
52.98
54.42
63.10
77.30
92.17
100.66
96.21
76.16
43.53
5.83
-28.25
-52.95
-67.53
-75.55
-82.04
-90.31
-100.43
-109.76
-115.16
-114.96
-110.06
-103.45
-98.40
-96.76
-97.84
-98.62
-95.15
-84.25
-65.03
-39.20
-10.31
17.57
41.09
58.28
68.43
71.74
68.93
61.33
51.03
41.14
35.48
37.78
50.42
73.33
103.49
135.50
162.98
180.53
185.40
178.15
162.05
141.68
121.64
105.71
96.51
95.33
101.89
113.91
127.13
136.29
136.54
125.09
101.89
69.14
29.71
-14.06
-60.83
-109.34
-157.25
-200.47
-233.92
-253.53
-258.44
-252.04
-241.02
-232.50
-230.51
-233.61
-235.33
-227.35
-203.93
-165.19
-117.54
-71.05
-35.12
-14.89
-10.04
-16.33
-28.34
-42.07
-55.99
-70.31
-85.74
-102.41
-119.58
-135.95
-150.18
-161.40
-169.41
-174.81
-178.94
-183.57
-190.23
-199.34
-209.62
-218.12
-221.17
-215.78
-200.94
-178.04
-150.35
-121.79
-95.48
-72.93
-53.93
-37.07
-20.54
-2.63
17.82
41.28
67.37
94.66
120.79
142.87
158.21
165.33
164.77
159.13
152.48
148.84
150.85
158.94
171.54
186.20
200.99
215.36
229.98
245.70
262.12
276.79
285.68
284.56
270.64
243.86
207.05
165.34
125.27
94.03
78.72
85.04
115.48
167.49
232.67
298.26
350.56
379.31
380.77
358.18
319.57
274.12
229.13
188.66
153.92
124.52
99.42
77.09
55.37
31.52
2.86
-31.78
-70.96
-110.73
-145.76
-171.13
-183.97
-184.37
-175.20
-161.11
-146.82
-135.61
-128.47
-124.32
-121.10
-117.20
-112.98
-111.10
-116.12
-131.91
-159.07
-193.46
-227.07
-250.94
-258.89
-250.26
-230.00
-207.08
-189.38
-180.20
-177.70
-177.29
-174.86
-168.50
-158.78
-146.80
-134.57
-122.13
-107.79
-89.97
-69.37
-49.12
-32.78
-22.79
-18.92
-21.55
-29.14
-38.63
-47.07
-54.02
-61.72
-72.65
-88.15
-106.63
-128.24
-151.83
-175.06
-195.38
-211.69
-224.01
-231.28
-232.09
-201.77
-131.02
-31.42
72.50
162.04
231.38
280.03
313.70
331.67
330.07
302.45
248.03
173.72
94.61
26.49
-20.27
-42.57
-44.59
-33.25
-17.67
-3.16
10.24
25.85
46.04
70.25
96.08
120.41
141.52
157.37
166.65
168.67
163.11
149.67
129.11
104.58
80.65
61.79
49.15
40.73
32.90
22.71
9.17
-6.65
-22.60
-37.21
-50.37
-63.07
-75.82
-87.42
-95.10
-96.14
-89.46
-76.44
-60.40
-45.18
-33.68
-27.03
-24.55
-24.36
-24.32
-22.66
-18.30
-10.85
-0.52
12.04
25.84
39.94
53.61
66.49
78.47
89.54
99.58
108.23
114.78
118.19
117.24
110.64
97.31
76.57
48.33
13.36
-26.61
-68.78
-109.65
-145.60
-173.55
-191.52
-199.05
-197.33
-188.74
-176.18
-162.07
-147.84
-133.87
-120.09
-106.47
-93.53
-82.32
-74.19
-70.40
-71.75
-78.38
-89.70
-104.53
-121.26
-138.11
-153.34
-165.44
-173.22
-175.84
-172.83
-164.28
-150.98
-134.47
-116.70
-99.36
-83.41
-68.98
-55.93
-44.74
-36.91
-34.57
-39.29
-50.91
-66.93
-83.14
-95.13
-99.87
-96.63
-86.62
-71.89
-53.83
-32.60
-7.50
21.84
54.32
86.81
114.51
132.35
136.94
128.27
110.30
89.89
74.33
68.41
72.67
83.42
94.83
101.87
102.30
97.13
89.36
82.01
76.79
73.84
72.29
70.99
68.83
64.60
56.97
44.90
28.36
8.49
-12.41
-31.86
-48.28
-61.44
-72.29
-81.98
-90.98
-98.68
-103.81
-105.32
-103.14
-98.47
-93.07
-88.19
-83.48
-76.72
-64.48
-43.37
-11.56
30.35
79.25
130.22
177.60
216.16
241.97
252.91
248.95
232.24
206.89
178.38
152.48
133.88
125.02
125.54
132.59
142.08
150.12
154.29
154.04
150.31
144.67
138.53
132.79
127.95
124.60
123.67
126.22
132.77
142.46
152.79
159.98
160.17
150.65
130.77
101.92
67.05
30.02
-4.92
-33.45
-51.87
-58.17
-53.07
-40.35
-25.99
-15.88
-13.52
-18.88
-29.03
-40.37
-50.74
-60.23
-70.30
-82.10
-95.26
-108.05
-118.74
-126.77
-133.01
-138.66
-143.55
-145.08
-138.63
-119.62
-86.14
-40.54
10.73
59.30
98.02
123.57
137.32
143.84
148.23
153.49
159.45
163.83
164.20
159.81
151.77
141.87
131.03
118.61
103.17
84.06
62.59
41.85
25.39
15.43
11.90
12.80
15.42
17.70
18.73
18.41
16.75
13.37
7.52
-1.58
-14.20
-29.90
-47.59
-65.74
-82.70
-97.06
-107.76
-114.24
-116.51
-114.97
-110.35
-103.55
-95.51
-87.00
-78.62
-70.73
-63.46
-56.81
-50.68
-44.98
-39.71
-34.91
-30.71
-27.14
-24.10
-21.36
-18.64
-15.72
-12.63
-9.68
-7.30
-5.88
-5.46
-5.62
-5.45
-3.86
0.00
6.35
14.60
23.66
32.35
39.95
46.46
52.42
58.50
65.07
71.91
78.26
83.06
85.27
84.13
79.34
71.19
60.55
48.70
37.11
26.86
18.40
11.36
4.70
-2.96
-12.69
-24.53
-37.08
-47.79
-53.95
-54.12
-49.07
-41.70
-35.83
-34.45
-38.38
-46.22
-55.38
-63.59
-69.86
-74.19
-76.65
-76.37
-71.56
-60.46
-42.75
-20.26
3.42
24.37
39.95
49.81
55.98
61.72
70.32
83.67
101.41
120.81
137.19
144.87
138.56
115.10
75.29
24.76
-26.89
-68.86
-93.07
-97.51
-87.08
-71.45
-60.83
-61.66
-74.43
-94.40
-114.49
-128.62
-133.83
-130.30
-120.06
-105.14
-86.67
-65.01
-40.52
-14.34
11.40
33.95
50.99
61.67
67.10
69.92
73.01
78.04
84.57
90.24
92.10
88.21
78.63
65.38
51.42
39.26
30.01
23.27
17.68
11.79
4.75
-3.49
-12.43
-21.51
-30.51
-39.62
-49.14
-59.10
-68.97
-77.60
-83.66
-86.03
-84.22
-78.34
-69.00
-57.08
-43.62
-29.83
-16.92
-5.74
3.64
12.12
21.27
32.57
46.61
62.50
78.09
90.85
98.86
101.67
100.47
97.43
94.77
93.80
94.44
95.48
95.25
92.40
86.49
77.98
68.02
57.97
49.03
41.87
36.26
30.77
22.93
9.99
-9.62
-35.02
-62.49
-86.69
-102.85
-108.80
-105.57
-96.29
-84.15
-70.86
-56.64
-41.31
-25.74
-12.10
-2.92
0.57
-0.56
-3.45
-4.91
-3.16
1.41
6.86
10.94
12.28
10.73
6.99
1.96
-3.69
-9.63
-15.64
-21.42
-26.53
-30.52
-33.05
-33.99
-33.43
-31.53
-28.62
-25.12
-21.59
-18.61
-16.63
-15.75
-15.70
-16.00
-16.17
-15.97
-15.48
-14.94
-14.68
-14.90
-15.64
-16.82
-18.32
-20.02
-21.87
-23.81
-25.80
-27.88
-30.12
-32.71
-35.81
-39.41
-43.17
-46.45
-48.44
-48.41
-45.98
-41.22
-34.62
-26.83
-18.49
-10.07
-1.91
5.61
12.07
17.00
20.09
21.31
21.05
19.93
18.54
17.29
16.22
15.21
14.04
12.68
11.25
9.93
8.85
7.99
7.16
6.06
4.35
1.72
-2.09
-7.10
-13.08
-19.42
-25.20
-29.43
-31.25
-30.25
-26.54
-20.72
-13.65
-6.24
0.79
6.96
12.03
15.87
18.43
19.70
19.71
18.64
16.79
14.51
12.15
9.85
7.59
5.21
2.53
-0.43
-3.49
-6.30
-8.57
-10.23
-11.45
-12.64
-14.29
-16.74
-20.06
-23.95
-27.77
-30.68
-31.84
-30.65
-26.91
-20.89
-13.28
-4.92
3.38
11.05
17.74
23.28
27.50
30.27
31.49
31.27
29.92
27.85
25.46
22.94
20.25
17.25
13.84
10.15
6.50
3.27
0.67
-1.41
-3.34
-5.55
-8.36
-11.81
-15.87
-20.60
-26.27
-33.19
-41.34
-50.01
-57.60
-61.99
-61.19
-54.06
-40.79
-22.78
-2.08
19.18
39.07
55.83
67.60
72.49
69.12
57.58
40.23
21.54
6.74
-0.24
1.52
9.96
21.54
33.48
45.30
58.46
74.60
93.61
112.94
128.74
138.05
140.38
137.63
132.45
126.43
119.31
109.72
96.89
81.92
67.79
58.10
55.15
58.73
66.07
73.03
75.90
72.74
63.47
48.98
30.16
7.45
-18.57
-46.36
-72.79
-93.64
-105.28
-106.63
-100.36
-92.27
-89.05
-95.55
-112.74
-137.54
-164.17
-186.53
-200.28
-204.03
-199.15
-188.77
-176.22
-163.84
-152.60
-142.44
-133.01
-124.13
-115.80
-107.83
-99.58
-89.98
-78.02
-63.34
-46.60
-29.36
-13.38
-0.03
10.23
17.81
23.66
28.70
33.46
38.00
42.11
45.59
48.42
50.82
53.03
55.20
57.19
58.61
59.02
58.18
56.15
53.36
50.33
47.42
44.75
42.16
39.43
36.41
33.07
29.45
25.63
21.66
17.61
13.72
10.32
7.88
6.77
7.13
8.86
11.64
15.14
19.03
23.12
27.23
31.14
34.57
37.24
38.91
39.54
39.26
38.32
36.94
35.25
33.28
31.04
28.57
25.99
23.40
20.85
18.27
15.51
12.45
9.10
5.64
2.33
-0.66
-3.36
-5.97
-8.77
-11.90
-15.28
-18.63
-21.67
-24.26
-26.43
-28.41
-30.42
-32.54
-34.70
-36.66
-38.13
-38.76
-38.24
-36.29
-32.80
-27.83
-21.73
-15.01
-8.21
-1.77
4.01
8.99
13.10
16.27
18.45
19.69
20.12
20.01
19.64
19.26
18.95
18.68
18.28
17.57
16.47
15.02
13.43
11.94
10.72
9.74
8.83
7.71
6.13
4.03
1.52
-1.11
-3.58
-5.72
-7.52
-9.11
-10.65
-12.26
-14.01
-15.95
-18.10
-20.46
-22.92
-25.09
-26.42
-26.26
-24.11
-19.90
-14.03
-7.23
-0.39
5.78
10.78
14.34
16.38
16.98
16.37
15.00
13.33
11.79
10.52
9.43
8.26
6.81
5.13
3.56
2.53
2.33
2.92
3.86
4.52
4.38
3.30
1.63
0.04
-0.80
-0.59
0.41
1.44
1.63
0.46
-2.00
-5.02
-7.62
-8.79
-7.83
-4.38
1.47
9.02
16.76
22.63
24.54
21.34
13.69
4.17
-3.59
-6.36
-2.77
6.27
18.25
30.27
40.26
47.30
51.13
51.44
47.59
38.94
25.68
9.40
-7.16
-20.90
-29.57
-32.44
-30.32
-25.04
-18.59
-12.59
-7.95
-4.91
-3.01
-1.31
1.27
5.71
12.48
21.29
31.13
40.58
48.36
53.82
57.00
58.47
58.83
58.34
56.78
53.67
48.74
42.21
34.96
28.13
22.61
18.72
16.11
14.13
12.31
10.79
10.30
11.94
16.50
24.03
33.61
43.51
51.87
57.33
59.46
58.46
54.61
47.59
36.42
20.21
-0.81
-24.84
-49.20
-71.56
-90.79
-106.68
-118.86
-125.93
-125.81
-117.34
-101.95
-84.05
-69.42
-62.24
-62.87
-67.60
-70.88
-68.56
-59.97
-47.82
-36.10
-27.60
-22.52
-19.06
-15.04
-9.64
-3.82
0.09
-0.03
-4.81
-13.00
-22.03
-29.31
-33.40
-34.44
-33.83
-33.25
-33.72
-35.16
-36.57
-36.66
-34.62
-30.49
-25.15
-19.83
-15.60
-13.03
-12.06
-12.20
-12.85
-13.54
-13.99
-14.08
-13.74
-12.88
-11.42
-9.34
-6.76
-3.86
-0.99
1.54
3.51
4.73
5.19
5.04
4.60
4.34
4.77
6.28
8.87
12.22
15.59
18.18
19.33
18.78
16.62
13.34
9.56
5.94
3.11
1.49
1.29
2.31
4.04
5.69
6.50
6.03
4.29
1.80
-0.75
-2.62
-3.35
-2.80
-1.15
1.18
3.64
5.63
6.69
6.52
5.09
2.63
-0.49
-3.82
-6.97
-9.63
-11.55
-12.55
-12.62
-11.91
-10.80
-9.86
-9.61
-10.38
-12.11
-14.40
-16.64
-18.29
-19.06
-19.03
-18.62
-18.30
-18.47
-19.26
-20.53
-22.03
-23.56
-25.01
-26.37
-27.58
-28.44
-28.72
-28.23
-27.02
-25.35
-23.54
-21.76
-19.84
-17.49
-14.43
-10.73
-6.77
-3.16
-0.37
1.49
2.67
3.60
4.58
5.63
6.43
6.59
5.86
4.29
2.23
0.16
-1.54
-2.75
-3.68
-4.73
-6.25
-8.45
-11.33
-14.82
-18.82
-23.29
-27.98
-32.29
-35.17
-35.37
-32.00
-25.02
-15.57
-5.54
3.17
9.49
13.48
16.10
18.52
21.55
25.50
30.39
36.20
42.89
50.23
57.46
63.39
66.67
66.33
62.12
54.48
44.29
32.67
20.73
9.60
0.31
-6.50
-10.86
-13.50
-15.62
-18.28
-22.06
-26.80
-31.85
-36.47
-40.20
-43.08
-45.56
-48.34
-52.10
-57.13
-63.21
-69.49
-74.86
-78.26
-79.16
-77.53
-73.80
-68.51
-62.18
-55.59
-49.66
-45.01
-41.08
-35.58
-25.20
-7.48
17.01
43.76
65.64
76.06
72.33
57.17
37.41
20.51
11.17
9.89
14.11
20.62
27.71
35.48
44.84
56.02
68.07
79.49
89.33
98.00
107.06
118.30
132.39
148.14
162.51
171.33
170.45
156.82
129.41
89.70
41.75
-8.46
-54.26
-89.78
-111.23
-117.77
-111.53
-97.00
-79.95
-66.23
-60.33
-64.11
-75.98
-91.15
-103.22
-106.54
-98.46
-80.28
-56.42
-32.20
-11.65
3.69
14.46
21.99
27.18
30.09
30.52
28.77
26.06
23.99
23.71
25.26
27.54
28.99
28.35
25.20
20.13
14.35
9.16
5.41
3.30
2.37
1.81
0.75
-1.34
-4.50
-8.29
-12.07
-15.25
-17.54
-18.99
-19.89
-20.47
-20.75
-20.46
-19.20
-16.70
-12.97
-8.34
-3.29
1.84
6.90
11.86
16.69
21.22
25.15
28.21
30.37
31.75
32.62
33.12
33.24
32.78
31.57
29.58
26.97
24.12
21.36
18.92
16.76
14.66
12.23
9.19
5.50
1.40
-2.58
-5.98
-8.45
-10.01
-10.91
-11.57
-12.34
-13.49
-15.27
-17.86
-21.35
-25.51
-29.69
-32.83
-33.82
-31.93
-27.19
-20.42
-12.78
-5.44
1.00
6.44
11.13
15.29
18.92
21.78
23.63
24.47
24.56
24.36
24.23
24.29
24.33
23.97
22.93
21.19
19.14
17.27
16.05
15.51
15.37
15.04
14.03
12.16
9.61
6.82
4.16
1.86
-0.14
-2.02
-3.93
-5.99
-8.21
-10.68
-13.41
-16.32
-19.10
-21.22
-22.09
-21.27
-18.66
-14.57
-9.56
-4.25
0.89
5.63
9.84
13.44
16.26
18.11
18.91
18.76
18.00
17.06
16.32
15.92
15.75
15.56
15.08
14.18
12.99
11.75
10.75
10.11
9.72
9.28
8.42
6.92
4.85
2.47
0.21
-1.65
-2.97
-3.87
-4.59
-5.43
-6.69
-8.64
-11.44
-14.98
-18.81
-22.05
-23.68
-22.91
-19.49
-13.88
-6.98
0.19
6.86
12.63
17.43
21.27
24.15
25.99
26.76
26.53
25.55
24.13
22.51
20.87
19.28
17.78
16.45
15.38
14.64
14.19
13.88
13.47
12.70
11.40
9.54
7.21
4.59
1.83
-0.94
-3.63
-6.26
-8.87
-11.65
-14.81
-18.55
-22.84
-27.33
-31.41
-34.27
-35.23
-33.97
-30.61
-25.63
-19.68
-13.40
-7.25
-1.57
3.42
7.55
10.68
12.77
13.88
14.21
14.05
13.68
13.30
13.00
12.73
12.40
11.90
11.16
10.23
9.16
8.08
7.04
6.00
4.85
3.46
1.76
-0.21
-2.31
-4.33
-6.15
-7.76
-9.30
-11.02
-13.16
-15.86
-19.11
-22.73
-26.36
-29.49
-31.53
-31.94
-30.39
-26.85
-21.65
-15.43
-8.89
-2.65
2.87
7.54
11.39
14.53
17.03
18.89
20.06
20.54
20.38
19.69
18.67
17.47
16.22
15.03
13.93
12.93
12.04
11.25
10.50
9.75
8.91
7.85
6.47
4.76
2.79
0.76
-1.14
-2.75
-4.06
-5.22
-6.46
-8.02
-10.07
-12.70
-15.85
-19.30
-22.68
-25.48
-27.18
-27.38
-25.92
-22.95
-18.83
-14.01
-8.87
-3.68
1.42
6.31
10.89
14.95
18.26
20.60
21.84
22.05
21.46
20.47
19.43
18.64
18.18
18.00
17.99
18.04
18.12
18.22
18.38
18.58
18.75
18.80
18.60
17.97
16.71
14.71
12.00
8.80
5.45
2.30
-0.46
-2.84
-4.98
-7.10
-9.34
-11.75
-14.24
-16.52
-18.10
-18.32
-16.61
-12.69
-6.86
0.07
7.01
13.02
17.68
21.06
23.54
25.42
26.70
27.14
26.47
24.67
22.00
18.94
15.87
13.06
10.62
8.62
7.16
6.38
6.32
6.80
7.46
7.88
7.76
7.02
5.84
4.53
3.41
2.65
2.29
2.27
2.43
2.62
2.65
2.41
1.85
1.02
0.08
-0.76
-1.30
-1.43
-1.17
-0.69
-0.25
-0.01
0.03
0.12
0.68
2.10
4.49
7.54
10.67
13.12
14.40
14.38
13.39
11.99
10.73
9.95
9.66
9.60
9.35
8.55
6.98
4.67
1.92
-0.89
-3.44
-5.57
-7.31
-8.78
-9.98
-10.82
-11.17
-11.10
-10.91
-11.17
-12.44
-14.94
-18.43
-22.21
-25.56
-27.96
-29.25
-29.61
-29.23
-28.18
-26.28
-23.26
-18.89
-13.13
-6.25
1.20
8.51
14.97
20.04
23.45
25.25
25.70
25.25
24.40
23.68
23.54
24.25
25.78
27.77
29.56
30.51
30.15
28.40
25.55
22.01
18.20
14.30
10.29
6.06
1.51
-3.40
-8.57
-13.84
-18.97
-23.63
-27.40
-29.92
-30.98
-30.68
-29.47
-28.00
-26.87
-26.35
-26.26
-26.05
-25.05
-22.79
-19.24
-14.73
-9.73
-4.76
-0.19
3.73
6.78
8.82
9.81
9.90
9.43
8.92
9.02
10.30
13.07
17.20
22.08
26.84
30.67
33.08
34.09
34.06
33.53
32.83
32.07
31.09
29.68
27.62
24.76
20.96
16.12
10.28
3.79
-2.59
-7.83
-10.81
-10.77
-7.49
-1.39
6.65
15.70
25.04
34.27
43.17
51.39
58.34
63.25
65.51
64.96
61.97
57.29
51.71
45.77
39.73
33.74
28.02
22.91
18.65
15.19
12.03
8.47
3.92
-1.81
-8.48
-15.57
-22.29
-27.68
-30.54
-29.48
-23.39
-11.96
3.87
21.90
39.35
53.73
63.64
68.97
70.51
69.08
64.99
57.86
47.08
32.36
14.10
-6.69
-28.79
-51.06
-72.64
-92.63
-109.85
-122.87
-130.43
-132.10
-128.75
-122.48
-115.98
-111.59
-110.49
-112.51
-116.58
-121.40
-126.04
-130.16
-133.86
-137.34
-140.60
-143.41
-145.47
-146.68
-147.26
-147.74
-148.73
-150.67
-153.57
-157.15
-160.96
-164.55
-167.56
-169.60
-170.17
-168.60
-164.28
-156.95
-147.01
-135.53
-123.95
-113.44
-104.31
-95.73
-86.04
-73.50
-57.12
-37.36
-16.10
3.90
20.08
30.99
36.72
38.71
39.00
39.35
40.84
43.67
47.68
52.72
58.84
66.02
73.94
81.90
88.95
94.33
97.74
99.58
100.86
102.51
104.74
106.59
106.16
101.37
90.95
74.96
55.25
34.95
17.35
4.68
-2.46
-5.03
-4.82
-3.50
-2.60
-2.29
-1.43
1.82
9.05
21.08
37.79
58.03
79.83
99.33
113.48
121.12
122.92
120.38
114.86
107.14
97.37
85.39
69.07
47.92
23.73
-0.76
-23.95
-46.26
-69.35
-94.85
-123.26
-156.23
-192.44
-227.35
-255.05
-271.01
-273.61
-263.93
-244.88
-203.52
-139.22
-63.87
5.58
58.67
94.41
116.89
131.06
140.55
147.96
150.94
147.13
136.27
120.19
101.44
82.39
65.16
51.43
41.44
33.33
25.79
18.94
13.98
11.92
12.82
15.99
20.33
24.73
27.08
26.29
22.86
18.24
13.69
9.75
6.37
3.19
-0.25
-4.91
-11.30
-19.08
-27.17
-34.33
-39.52
-42.00
-41.44
-37.86
-31.85
-24.18
-15.48
-6.10
3.67
13.65
23.59
33.14
41.83
49.12
54.46
57.58
58.59
57.99
56.50
54.83
53.38
52.17
50.90
49.08
46.32
42.57
38.11
33.57
29.56
26.47
24.23
22.28
19.79
15.96
10.31
2.83
-6.07
-15.83
-25.87
-35.75
-45.06
-53.32
-59.97
-64.48
-66.64
-66.71
-65.45
-63.86
-62.70
-62.12
-61.56
-60.06
-56.84
-51.70
-45.00
-37.30
-28.91
-19.60
-8.99
2.92
15.34
26.85
36.11
42.61
47.07
51.02
55.86
61.99
68.59
74.08
77.05
77.03
74.62
71.00
67.19
63.49
59.54
54.60
48.18
40.31
31.67
23.24
16.06
10.84
7.86
7.01
7.95
10.28
13.69
17.97
22.93
28.36
33.90
39.12
43.55
46.79
48.67
49.27
48.91
47.98
46.83
45.68
44.57
43.47
42.29
41.00
39.59
38.06
36.42
34.63
32.65
30.40
27.82
24.87
21.60
18.11
14.59
11.10
7.58
3.69
-1.02
-6.93
-14.05
-21.92
-29.63
-36.11
-40.38
-41.86
-40.41
-36.36
-30.29
-22.94
-15.03
-7.19
0.06
6.42
11.70
15.86
18.98
21.21
22.80
23.98
24.92
25.64
26.01
25.81
24.88
23.25
21.11
18.80
16.63
14.81
13.33
12.08
10.82
9.29
7.25
4.52
1.04
-3.08
-7.58
-12.00
-15.88
-18.73
-20.18
-19.96
-17.98
-14.43
-9.74
-4.62
0.16
4.01
6.69
8.40
9.58
10.62
11.67
12.51
12.70
11.95
10.23
7.95
5.77
4.32
3.99
4.76
6.27
8.02
9.48
10.19
9.74
7.92
4.66
0.33
-4.30
-8.06
-9.70
-8.27
-3.46
4.30
14.05
24.69
35.50
46.25
57.11
68.23
79.35
89.58
97.46
101.53
100.84
95.45
86.42
75.36
63.80
52.69
42.37
32.81
23.98
15.93
8.64
1.84
-5.07
-12.68
-21.10
-29.77
-37.59
-43.46
-46.78
-47.75
-47.13
-45.78
-44.28
-42.94
-41.84
-41.21
-41.41
-42.87
-45.79
-50.12
-55.52
-61.50
-67.43
-72.55
-75.91
-76.42
-73.01
-65.01
-52.46
-36.20
-17.77
0.81
17.52
30.67
39.21
42.91
42.47
39.41
35.77
33.64
34.65
39.63
48.38
59.79
72.12
83.38
91.75
95.95
95.45
90.53
82.09
71.44
59.92
48.71
38.59
29.88
22.45
15.79
9.24
2.19
-5.68
-14.21
-22.73
-30.26
-35.71
-38.16
-37.13
-32.66
-25.31
-16.19
-6.71
1.49
6.85
8.23
5.09
-2.31
-13.04
-25.81
-39.36
-52.72
-65.23
-76.42
-85.78
-92.80
-97.13
-98.87
-98.66
-97.51
-96.29
-95.31
-94.26
-92.48
-89.45
-85.29
-80.71
-76.68
-73.87
-72.25
-71.00
-68.90
-64.88
-58.57
-50.36
-41.22
-32.27
-24.26
-17.40
-11.44
-5.96
-0.65
4.42
8.92
12.40
14.50
15.15
14.65
13.69
13.38
14.89
19.21
26.88
37.83
51.19
65.24
77.40
84.58
83.76
72.86
51.43
21.07
-14.88
-52.24
-87.24
-117.34
-141.54
-159.82
-172.63
-180.39
-183.54
-182.52
-177.80
-169.48
-157.14
-140.05
-117.70
-90.45
-59.68
-27.56
3.56
31.90
56.38
76.66
92.82
105.31
114.94
122.73
129.62
136.03
141.57
145.21
145.71
142.25
134.73
123.83
110.76
96.86
83.30
70.87
59.75
49.54
39.54
29.22
18.66
8.65
0.33
-5.44
-8.52
-9.56
-9.56
-9.40
-9.55
-10.21
-11.59
-13.95
-17.51
-21.96
-26.37
-29.42
-30.00
-27.66
-22.77
-16.14
-8.53
-0.41
7.87
15.85
22.76
27.74
30.35
30.92
30.52
30.57
32.18
35.79
40.96
46.68
51.56
54.32
54.07
50.65
44.79
37.91
31.67
27.29
25.15
24.54
23.92
21.23
14.45
2.01
-16.53
-40.04
-65.76
-89.91
-108.92
-120.71
-125.36
-124.68
-120.99
-115.78
-109.17
-100.37
-88.92
-75.68
-62.90
-53.39
-49.19
-50.72
-56.65
-64.52
-71.66
-75.87
-75.81
-71.03
-61.82
-49.12
-34.29
-18.93
-4.55
7.74
17.34
24.31
29.34
33.54
38.18
44.16
51.65
59.77
66.81
70.79
70.22
64.82
55.80
45.55
37.02
32.73
34.02
40.67
51.20
63.33
74.91
84.50
91.48
95.80
97.49
96.53
92.89
86.89
79.25
71.04
63.61
58.54
57.62
62.32
73.19
89.16
107.45
124.24
135.92
140.40
137.66
129.58
118.96
108.48
99.89
93.60
88.91
84.26
77.96
68.96
57.70
46.10
36.85
31.96
31.41
32.95
32.94
28.03
16.33
-2.37
-27.47
-58.71
-96.57
-141.51
-192.22
-244.36
-290.73
-323.27
-336.19
-328.52
-304.66
-272.39
-239.46
-210.61
-186.55
-165.24
-144.40
-123.58
-104.55
-90.14
-82.64
-82.69
-89.19
-100.09
-113.17
-126.38
-137.86
-145.61
-147.57
-141.86
-127.33
-103.94
-73.07
-37.31
0.11
36.09
68.46
96.60
121.25
143.94
166.01
187.94
209.10
228.17
243.90
255.75
264.01
269.37
272.02
270.89
263.51
246.74
218.15
177.43
127.22
72.77
20.50
-23.89
-56.97
-78.10
-88.86
-91.64
-88.36
-79.91
-66.60
-49.34
-30.58
-14.34
-5.03
-5.78
-16.99
-36.14
-58.73
-79.96
-96.14
-105.34
-107.17
-102.14
-91.01
-74.55
-53.60
-29.24
-2.94
23.26
46.98
65.73
77.43
81.19
77.93
70.34
62.26
57.30
57.38
62.02
68.54
73.40
73.83
68.93
59.31
46.35
30.95
13.19
-6.98
-28.56
-49.12
-65.70
-76.50
-81.94
-84.06
-84.73
-83.81
-78.88
-66.91
-46.68
-20.41
6.83
29.37
43.52
48.78
47.23
41.70
34.12
24.94
13.87
0.96
-12.70
-25.23
-34.85
-40.56
-42.51
-41.98
-40.66
-39.86
-39.90
-40.09
-39.14
-35.97
-30.37
-23.14
-15.75
-9.59
-5.43
-3.13
-1.95
-1.01
0.29
1.95
3.52
4.37
4.05
2.50
0.03
-2.84
-5.66
-8.23
-10.60
-12.84
-14.97
-16.77
-17.83
-17.78
-16.50
-14.19
-11.39
-8.69
-6.55
-5.22
-4.74
-5.01
-5.92
-7.33
-8.97
-10.49
-11.48
-11.61
-10.73
-8.95
-6.43
-3.32
0.37
4.67
9.46
14.28
18.42
21.08
21.76
20.44
17.59
13.92
10.19
6.88
4.24
2.23
0.74
-0.29
-0.86
-0.96
-0.72
-0.45
-0.69
-2.04
-4.98
-9.65
-15.73
-22.52
-28.99
-34.00
-36.45
-35.55
-30.91
-22.80
-12.09
-0.14
11.60
21.97
30.42
37.00
42.14
46.25
49.52
51.82
52.88
52.51
50.77
48.02
44.74
41.50
38.72
36.66
35.29
34.40
33.60
32.48
30.73
28.10
24.53
20.10
14.96
9.40
3.68
-2.02
-7.70
-13.59
-20.03
-27.20
-34.87
-42.30
-48.37
-51.88
-52.07
-48.83
-42.83
-35.24
-27.35
-20.17
-14.23
-9.52
-5.72
-2.56
-0.07
1.36
1.18
-1.03
-5.18
-10.63
-16.31
-21.16
-24.48
-26.19
-26.74
-26.81
-26.97
-27.49
-28.32
-29.22
-29.74
-29.38
-27.58
-23.87
-18.12
-10.79
-2.93
4.12
9.18
11.73
12.18
11.74
11.84
13.60
17.28
22.29
27.47
31.57
33.75
33.72
31.66
27.98
23.08
17.31
11.04
4.78
-0.76
-4.87
-7.04
-7.22
-5.73
-3.13
0.06
3.58
7.30
11.07
14.48
16.87
17.49
15.83
11.85
6.01
-0.89
-8.03
-14.74
-20.57
-25.18
-28.27
-29.44
-28.41
-25.05
-19.48
-12.10
-3.43
6.01
15.69
25.11
33.68
40.78
45.80
48.27
48.00
45.08
39.90
33.09
25.48
17.99
11.46
6.47
3.17
1.27
0.19
-0.71
-1.87
-3.40
-5.19
-7.06
-9.02
-11.30
-14.28
-18.24
-23.23
-28.98
-34.98
-40.65
-45.38
-48.55
-49.59
-48.03
-43.65
-36.65
-27.78
-18.14
-8.94
-1.12
4.90
9.13
11.83
13.27
13.56
12.74
10.93
8.42
5.72
3.37
1.73
0.87
0.57
0.44
0.15
-0.48
-1.48
-2.67
-3.85
-4.88
-5.73
-6.53
-7.49
-8.83
-10.68
-13.01
-15.62
-18.25
-20.74
-22.98
-24.94
-26.57
-27.61
-27.64
-26.19
-22.98
-18.01
-11.71
-4.74
2.22
8.69
14.38
19.22
23.13
26.01
27.71
28.15
27.36
25.56
23.05
20.10
16.91
13.56
10.03
6.30
2.37
-1.64
-5.50
-8.94
-11.76
-13.96
-15.69
-17.09
-18.13
-18.49
-17.74
-15.66
-12.47
-8.91
-5.91
-4.19
-3.83
-4.32
-4.80
-4.57
-3.35
-1.29
1.27
4.07
7.03
10.14
13.35
16.41
18.92
20.48
20.83
19.95
18.01
15.33
12.28
9.18
6.27
3.62
1.19
-1.10
-3.33
-5.45
-7.34
-8.83
-9.81
-10.23
-10.11
-9.61
-9.01
-8.70
-9.11
-10.54
-13.01
-16.07
-19.01
-20.98
-21.39
-20.08
-17.31
-13.63
-9.61
-5.68
-1.97
1.57
5.08
8.58
11.89
14.56
16.08
16.01
14.32
11.36
7.84
4.49
1.84
0.09
-0.88
-1.25
-1.13
-0.46
0.95
3.23
6.35
10.06
13.89
17.29
19.70
20.68
19.91
17.37
13.42
8.82
4.62
1.96
1.68
4.15
9.06
15.67
22.98
30.00
35.81
39.61
40.73
38.69
33.51
25.79
16.70
7.58
-0.56
-7.37
-13.22
-18.78
-24.55
-30.50
-36.13
-40.73
-43.93
-45.85
-47.15
-48.57
-50.60
-53.18
-55.80
-57.68
-58.20
-57.04
-54.16
-49.76
-44.06
-37.28
-29.68
-21.61
-13.54
-5.97
0.70
6.27
10.71
14.13
16.68
18.53
19.85
20.76
21.35
21.65
21.58
21.02
19.93
18.46
16.84
15.40
14.39
13.86
13.71
13.70
13.47
12.68
11.00
8.31
4.77
0.95
-2.37
-4.36
-4.45
-2.58
0.91
5.45
10.52
15.74
20.82
25.34
28.66
29.99
28.76
24.88
18.94
12.12
5.85
1.43
-0.32
0.66
3.69
7.50
10.57
11.54
9.51
4.33
-3.48
-12.84
-22.44
-31.17
-38.40
-44.28
-49.62
-55.61
-63.10
-71.99
-80.93
-87.65
-89.84
-86.13
-76.64
-62.81
-46.68
-30.06
-13.98
1.17
15.32
28.30
39.70
49.10
56.35
61.68
65.62
68.56
70.58
71.27
69.95
66.06
59.57
51.12
41.95
33.45
26.70
22.04
19.09
17.01
14.95
12.46
9.60
6.88
5.02
4.69
6.30
9.94
15.36
21.99
29.10
35.99
42.19
47.50
51.87
55.15
56.99
56.84
54.14
48.67
40.76
31.34
21.63
12.82
5.72
0.54
-3.04
-5.78
-8.48
-11.72
-15.78
-20.58
-25.88
-31.43
-37.02
-42.46
-47.45
-51.41
-53.69
-53.68
-51.22
-46.69
-41.11
-35.83
-32.11
-30.73
-31.69
-34.14
-36.72
-37.88
-36.41
-31.83
-24.45
-15.17
-5.10
4.85
14.16
22.68
30.39
37.15
42.69
46.60
48.58
48.59
46.87
43.82
39.95
35.79
31.85
28.76
27.12
27.27
29.12
32.09
35.30
37.86
39.27
39.62
39.36
39.11
39.29
39.92
40.61
40.70
39.48
36.36
31.06
23.68
14.72
5.01
-4.54
-13.15
-20.25
-25.58
-29.16
-31.25
-32.52
-33.93
-36.53
-40.99
-47.20
-53.95
-59.36
-61.43
-58.99
-52.16
-42.22
-31.06
-20.39
-11.20
-3.70
2.38
7.42
11.62
15.05
17.75
19.77
21.22
22.09
22.24
21.42
19.47
16.39
12.58
8.76
5.87
4.74
5.74
8.64
12.53
16.12
18.16
17.81
14.94
10.01
3.89
-2.42
-8.04
-12.23
-14.48
-14.57
-12.60
-9.06
-4.77
-0.56
2.91
5.28
6.56
6.91
6.47
5.27
3.34
0.76
-2.21
-5.10
-7.48
-9.10
-9.99
-10.44
-10.89
-11.64
-12.80
-14.25
-15.70
-16.97
-18.09
-19.37
-21.26
-24.03
-27.53
-31.19
-34.05
-35.12
-33.79
-29.97
-24.16
-17.12
-9.60
-2.15
4.95
11.53
17.37
22.12
25.44
27.17
27.45
26.76
25.68
24.63
23.65
22.37
20.20
16.77
12.14
6.93
2.06
-1.58
-3.57
-4.05
-3.70
-3.46
-4.09
-6.03
-9.16
-12.88
-16.25
-18.18
-17.81
-14.69
-8.95
-1.30
7.26
15.67
23.13
29.09
33.28
35.49
35.61
33.64
29.80
24.59
18.76
13.08
8.13
4.23
1.37
-0.68
-2.15
-3.25
-4.01
-4.48
-4.80
-5.27
-6.32
-8.39
-11.66
-16.02
-21.08
-26.35
-31.39
-35.93
-39.78
-42.74
-44.43
-44.32
-41.97
-37.23
-30.39
-22.11
-13.27
-4.64
3.15
9.67
14.57
17.58
18.48
17.32
14.47
10.62
6.60
3.06
0.33
-1.75
-3.65
-5.94
-8.99
-12.99
-17.77
-23.08
-28.55
-33.96
-39.18
-44.21
-49.15
-54.06
-58.92
-63.60
-67.92
-71.70
-74.75
-76.78
-77.41
-76.31
-73.28
-68.36
-61.65
-52.94
-41.58
-26.62
-7.48
15.28
39.60
62.35
80.38
91.87
96.93
97.48
96.26
95.59
96.75
99.74
103.82
107.96
111.22
112.54
110.51
103.46
89.86
69.16
42.54
13.24
-13.96
-33.93
-42.83
-39.40
-25.28
-4.22
19.37
41.88
61.07
75.66
84.83
88.10
85.90
80.43
75.68
76.19
84.88
101.36
121.47
138.64
146.62
141.72
123.98
96.73
65.00
33.66
5.89
-17.50
-37.69
-56.77
-76.20
-95.68
-113.06
-125.53
-131.30
-130.87
-126.80
-122.20
-118.97
-116.92
-114.48
-110.23
-104.19
-97.89
-93.25
-91.13
-90.60
-89.44
-85.41
-77.51
-66.49
-54.42
-43.65
-35.81
-31.18
-28.85
-27.20
-24.66
-20.35
-14.26
-7.26
-0.64
4.36
7.13
7.95
7.85
8.12
9.70
12.70
16.32
19.27
20.43
19.46
16.91
13.86
11.29
9.66
8.88
8.63
8.73
9.32
10.60
12.52
14.54
15.86
15.83
14.37
12.07
9.85
8.47
8.01
7.82
6.74
3.58
-2.44
-11.34
-22.25
-33.51
-43.06
-48.95
-50.00
-46.15
-38.54
-29.13
-19.95
-12.45
-7.15
-3.70
-1.51
-0.20
0.12
-1.07
-4.28
-9.56
-16.21
-23.05
-28.73
-32.32
-33.57
-32.96
-31.45
-30.06
-29.53
-30.13
-31.82
-34.40
-37.77
-41.92
-46.73
-51.88
-56.81
-61.06
-64.52
-67.51
-70.44
-73.35
-75.66
-76.24
-74.12
-69.01
-61.57
-53.08
-44.62
-36.52
-28.18
-18.54
-6.65
7.82
24.57
42.85
61.69
79.92
96.23
109.28
118.12
122.64
123.84
123.56
123.80
125.80
129.41
133.27
135.43
134.47
130.13
123.55
116.62
111.03
107.41
104.91
101.70
95.87
86.34
73.32
58.05
42.16
27.01
13.36
1.49
-8.57
-17.08
-24.54
-31.85
-40.02
-49.64
-60.21
-69.96
-76.48
-77.82
-73.63
-65.40
-55.85
-47.46
-41.27
-36.34
-30.42
-21.26
-8.00
8.08
23.93
36.03
42.05
42.02
38.44
35.33
36.39
43.52
56.03
71.12
85.18
94.91
97.74
91.64
75.14
48.08
12.73
-25.65
-59.79
-82.68
-90.38
-83.57
-66.93
-46.85
-28.60
-14.73
-5.17
1.23
5.38
7.33
6.91
4.51
1.35
-0.96
-1.34
0.22
2.70
4.74
5.18
3.79
1.20
-1.48
-3.11
-3.14
-1.81
0.12
1.68
2.09
1.13
-0.91
-3.47
-5.91
-7.74
-8.55
-8.12
-6.36
-3.49
-0.05
3.30
5.89
7.56
8.56
9.49
10.76
12.39
13.86
14.40
13.50
11.08
7.63
3.78
0.02
-3.51
-6.98
-10.57
-14.20
-17.59
-20.26
-21.85
-22.29
-21.88
-21.19
-20.88
-21.46
-23.19
-25.95
-29.43
-33.14
-36.52
-38.91
-39.58
-37.87
-33.38
-26.33
-17.52
-8.20
0.43
7.60
13.15
17.33
20.43
22.45
23.07
21.91
18.96
14.66
9.85
5.35
1.64
-1.23
-3.51
-5.32
-6.49
-6.55
-4.97
-1.55
3.28
8.46
12.57
14.23
12.63
7.73
0.31
-8.35
-16.97
-24.62
-30.79
-35.12
-36.92
-35.04
-28.18
-15.65
1.86
22.18
42.41
60.14
74.45
85.99
96.26
106.44
116.85
126.97
136.05
143.55
148.86
150.59
146.23
132.46
106.72
68.84
22.08
-27.46
-72.71
-108.06
-131.06
-142.64
-145.95
-144.59
-141.16
-136.66
-130.96
-123.62
-114.63
-104.64
-94.60
-85.15
-76.31
-67.52
-58.17
-48.17
-38.06
-28.94
-21.93
-17.61
-15.83
-15.76
-16.21
-16.11
-14.92
-12.76
-10.29
-8.32
-7.45
-7.77
-8.82
-9.78
-9.96
-9.13
-7.66
-6.39
-6.27
-7.82
-11.06
-15.49
-20.29
-24.65
-27.86
-29.44
-29.15
-27.07
-23.54
-19.06
-14.05
-8.75
-3.18
2.74
8.97
15.21
20.91
25.47
28.37
29.46
28.93
27.25
25.02
22.78
20.80
19.11
17.55
15.91
14.18
12.57
11.41
10.98
11.24
11.77
11.95
11.17
9.08
5.73
1.42
-3.41
-8.25
-12.54
-15.58
-16.60
-14.96
-10.42
-3.40
5.00
13.34
20.20
24.65
26.41
25.79
23.38
19.85
15.84
11.94
8.72
6.69
6.15
7.05
8.86
10.71
11.69
11.17
9.09
6.01
2.86
0.53
-0.57
-0.66
-0.52
-1.05
-3.00
-6.57
-11.49
-16.97
-21.99
-25.50
-26.62
-24.96
-20.72
-14.76
-8.26
-2.46
1.88
4.66
6.28
7.42
8.52
9.64
10.44
10.47
9.36
7.05
3.79
-0.16
-4.51
-9.16
-14.05
-19.08
-24.05
-28.74
-33.06
-37.20
-41.56
-46.45
-51.88
-57.42
-62.53
-67.08
-71.55
-76.86
-83.58
-91.22
-97.90
-100.83
-97.46
-86.52
-68.64
-46.13
-22.28
-0.41
16.65
26.82
29.01
23.22
10.87
-5.43
-22.29
-36.51
-45.86
-49.45
-47.43
-40.45
-29.23
-14.45
2.99
21.76
40.00
55.85
67.93
75.78
79.79
80.86
79.96
77.81
74.97
71.87
68.95
66.52
64.60
62.93
61.04
58.64
55.80
52.92
50.37
48.03
45.09
40.28
32.52
21.60
8.36
-5.50
-18.20
-28.75
-37.36
-45.38
-54.60
-66.23
-80.14
-94.42
-105.85
-110.79
-106.52
-92.25
-69.66
-42.35
-14.72
9.17
26.63
36.51
39.17
36.27
30.48
24.92
22.33
24.00
28.81
33.20
32.40
22.77
4.12
-19.51
-41.23
-54.27
-55.16
-45.16
-29.25
-13.45
-1.89
4.59
7.82
10.25
12.96
15.01
14.30
9.39
0.79
-8.98
-16.62
-19.76
-18.05
-13.30
-8.57
-6.74
-9.30
-15.86
-24.55
-32.90
-38.87
-41.48
-40.90
-38.15
-34.41
-30.51
-26.70
-22.76
-18.49
-14.13
-10.52
-8.84
-9.94
-13.74
-18.92
-23.27
-24.55
-21.38
-13.89
-3.57
7.44
17.31
25.18
31.31
36.60
41.90
47.51
53.06
57.73
60.65
61.21
59.15
54.59
47.91
39.85
31.47
24.04
18.72
16.22
16.43
18.46
21.03
22.91
23.43
22.56
20.81
18.83
17.18
16.05
15.38
14.96
14.57
14.10
13.44
12.38
10.62
7.81
3.78
-1.33
-6.91
-12.05
-15.81
-17.62
-17.44
-15.86
-13.79
-12.14
-11.45
-11.68
-12.25
-12.27
-10.89
-7.63
-2.58
3.70
10.43
16.91
22.74
27.81
32.11
35.59
38.04
39.21
39.00
37.62
35.54
33.36
31.58
30.42
29.70
28.97
27.68
25.43
22.20
18.30
14.39
11.10
8.81
7.54
6.92
6.37
5.39
3.77
1.69
-0.24
-1.22
-0.51
2.28
6.91
12.53
17.93
22.01
24.17
24.49
23.58
22.18
20.84
19.68
18.55
17.27
15.86
14.57
13.76
13.67
14.24
15.13
15.83
15.90
15.16
13.70
11.77
9.56
7.04
3.99
0.26
-3.98
-8.11
-11.12
-12.02
-10.24
-5.89
0.26
7.15
13.75
19.39
23.82
27.13
29.56
31.42
32.99
34.41
35.72
36.74
37.20
36.81
35.43
33.12
30.20
27.11
24.34
22.26
21.07
20.72
20.94
21.31
21.34
20.62
18.96
16.49
13.62
11.02
9.36
9.18
10.62
13.37
16.67
19.54
21.01
20.49
17.81
13.30
7.67
1.75
-3.60
-7.65
-9.94
-10.42
-9.52
-8.04
-6.97
-7.04
-8.47
-10.80
-13.00
-14.05
-13.34
-11.00
-7.76
-4.64
-2.55
-1.97
-2.83
-4.51
-6.17
-7.06
-6.60
-4.51
-0.78
4.32
10.26
16.28
21.88
26.66
30.49
33.50
36.00
38.13
39.79
40.45
39.43
36.86
33.19
29.01
24.90
21.42
18.89
17.59
17.41
18.02
20.01
23.30
26.89
29.14
28.73
25.14
19.39
13.08
7.93
7.02
11.73
21.16
32.90
44.63
55.13
65.24
76.25
89.04
105.79
126.19
147.19
164.05
172.63
170.57
158.69
139.09
100.43
40.78
-32.01
-104.11
-164.69
-207.63
-237.35
-256.52
-266.25
-267.71
-258.79
-240.21
-215.32
-188.52
-163.10
-140.60
-120.22
-101.16
-83.14
-64.47
-44.56
-23.96
-4.16
13.43
27.81
39.23
48.01
54.33
59.23
62.92
64.85
64.09
60.13
53.06
43.97
34.07
24.53
17.00
12.73
12.05
14.11
17.14
19.00
18.13
13.92
6.86
-1.72
-10.65
-19.54
-28.72
-38.50
-48.57
-57.68
-64.07
-66.47
-64.54
-59.18
-52.18
-45.61
-41.17
-40.03
-42.77
-49.42
-59.43
-71.35
-82.87
-91.10
-93.04
-86.40
-70.58
-46.83
-18.16
11.59
38.95
61.70
79.17
91.93
101.14
107.80
112.51
115.62
117.47
118.52
119.28
119.89
119.85
118.05
112.97
103.35
88.75
69.93
48.76
27.73
9.10
-5.80
-16.95
-25.35
-32.47
-39.72
-48.07
-57.84
-68.83
-80.42
-91.80
-102.08
-110.54
-116.76
-120.64
-122.30
-121.80
-119.13
-114.33
-107.90
-100.84
-94.45
-89.84
-87.32
-86.09
-84.62
-81.24
-74.79
-65.05
-52.76
-39.19
-25.52
-12.47
-0.08
12.01
24.29
36.90
49.61
61.90
72.96
81.92
87.84
89.89
87.70
81.75
73.49
65.12
58.93
56.35
57.41
60.76
64.08
65.07
62.34
55.67
45.85
34.38
22.77
12.29
3.95
-1.53
-3.76
-2.82
0.70
5.66
10.58
14.11
15.50
14.75
12.51
9.78
7.42
5.92
5.34
5.51
6.10
6.79
7.31
7.32
6.68
5.33
3.44
1.28
-0.84
-2.62
-3.92
-4.59
-4.58
-3.90
-2.67
-1.17
0.19
1.01
1.06
0.43
-0.46
-1.06
-0.90
0.22
2.07
4.09
5.62
6.18
5.69
4.48
3.04
1.65
0.20
-1.81
-5.00
-9.73
-15.87
-22.83
-29.74
-35.78
-40.39
-43.36
-44.76
-44.89
-44.08
-42.70
-41.12
-39.74
-39.05
-39.60
-41.86
-46.09
-52.14
-59.32
-66.56
-72.71
-76.78
-78.20
-76.82
-72.80
-66.46
-58.25
-48.78
-38.89
-29.52
-21.56
-15.66
-12.01
-10.34
-10.02
-10.24
-10.22
-9.40
-7.64
-5.20
-2.67
-0.70
0.31
0.23
-0.67
-2.03
-3.52
-4.95
-6.31
-7.62
-8.91
-10.09
-11.02
-11.51
-11.34
-10.26
-8.14
-5.00
-1.07
3.33
7.90
12.50
17.06
21.45
25.32
28.16
29.48
29.04
27.10
24.24
21.10
18.16
15.63
13.53
11.93
11.05
11.10
12.08
13.70
15.48
16.80
17.26
16.65
14.97
12.41
9.32
6.18
3.69
2.62
3.56
6.70
11.64
17.45
22.96
27.12
29.31
29.41
27.67
24.40
19.75
13.64
5.93
-3.38
-13.78
-24.28
-33.61
-40.60
-44.50
-45.13
-42.87
-38.40
-32.40
-25.37
-17.55
-9.09
-0.19
8.82
17.64
26.11
34.43
42.98
51.97
61.04
69.19
75.11
77.75
76.91
73.18
67.69
61.41
54.83
47.91
40.47
32.46
24.11
15.68
7.27
-1.40
-10.90
-21.77
-34.23
-48.04
-62.53
-76.74
-89.69
-100.54
-108.65
-113.67
-115.34
-113.46
-107.69
-97.75
-83.55
-65.56
-44.88
-23.07
-1.82
17.33
33.26
45.27
52.99
56.59
56.79
54.77
51.89
49.13
46.70
44.09
40.46
35.33
28.99
22.45
16.91
13.14
11.15
10.23
9.48
8.09
5.50
1.21
-5.22
-14.06
-25.05
-37.15
-48.65
-57.67
-62.80
-63.54
-60.34
-54.18
-46.12
-36.87
-26.80
-16.21
-5.44
4.98
14.48
22.63
29.22
34.14
37.29
38.63
38.24
36.46
33.90
31.26
29.03
27.39
26.10
24.71
22.69
19.65
15.36
9.80
3.23
-3.78
-10.39
-15.62
-18.65
-19.09
-17.11
-13.36
-8.72
-4.07
-0.03
3.06
5.10
6.07
5.94
4.61
2.01
-1.76
-6.39
-11.24
-15.56
-18.57
-19.76
-19.00
-16.57
-13.07
-9.18
-5.57
-2.76
-1.12
-0.84
-1.89
-3.91
-6.18
-7.83
-8.01
-6.26
-2.61
2.43
7.97
13.19
17.53
20.80
23.19
25.10
26.82
28.45
29.85
30.73
30.85
30.10
28.61
26.58
24.24
21.70
18.93
15.85
12.41
8.66
4.65
0.37
-4.33
-9.66
-15.75
-22.41
-29.04
-34.70
-38.33
-39.08
-36.64
-31.31
-23.92
-15.54
-7.13
0.70
7.66
13.78
19.26
24.23
28.71
32.60
35.70
37.85
38.93
39.00
38.24
36.87
35.16
33.35
31.55
29.76
27.77
25.16
21.40
16.03
8.92
0.47
-8.43
-16.53
-22.59
-25.69
-25.47
-22.20
-16.70
-10.09
-3.52
2.13
6.41
9.27
10.96
11.86
12.26
12.38
12.34
12.24
12.06
11.70
10.96
9.64
7.74
5.53
3.42
1.86
1.05
0.83
0.79
0.41
-0.76
-2.97
-6.27
-10.45
-15.03
-19.37
-22.69
-24.40
-24.25
-22.41
-19.42
-15.91
-12.37
-9.09
-6.08
-3.35
-0.97
0.82
1.79
1.82
1.08
-0.04
-1.04
-1.56
-1.52
-1.13
-0.73
-0.54
-0.54
-0.51
-0.19
0.47
1.30
2.01
2.35
2.33
2.24
2.49
3.49
5.49
8.51
12.36
16.70
21.07
24.99
27.95
29.53
29.49
27.82
24.79
20.91
16.80
13.12
10.40
8.94
8.77
9.74
11.51
13.61
15.55
16.83
17.07
16.14
14.13
11.39
8.32
5.21
2.08
-1.33
-5.36
-10.23
-15.75
-21.27
-25.82
-28.41
-28.36
-25.55
-20.54
-14.32
-7.97
-2.34
2.19
5.64
8.18
9.95
10.85
10.73
9.55
7.58
5.33
3.37
2.00
1.05
0.07
-1.50
-3.88
-6.86
-9.87
-12.35
-14.02
-15.07
-16.11
-17.82
-20.67
-24.67
-29.27
-33.54
-36.50
-37.38
-35.87
-32.29
-27.35
-22.00
-17.10
-13.23
-10.59
-9.13
-8.67
-9.02
-10.02
-11.52
-13.35
-15.28
-17.02
-18.30
-18.90
-18.75
-18.06
-17.17
-16.56
-16.60
-17.45
-19.02
-21.03
-23.18
-25.26
-27.07
-28.37
-28.79
-27.82
-25.00
-20.09
-13.19
-4.64
5.08
15.55
26.33
36.95
46.87
55.53
62.53
67.78
71.53
74.22
76.25
77.76
78.58
78.38
76.89
74.08
70.21
65.73
61.09
56.53
52.11
47.67
43.00
37.94
32.51
26.80
20.85
14.49
7.35
-1.06
-11.05
-22.46
-34.54
-46.11
-55.82
-62.59
-65.85
-65.70
-62.68
-57.58
-51.16
-43.95
-36.32
-28.53
-20.83
-13.50
-6.90
-1.34
2.91
5.74
7.23
7.57
7.07
6.02
4.73
3.36
2.10
1.04
0.25
-0.23
-0.39
-0.22
0.19
0.67
0.94
0.67
-0.47
-2.70
-5.98
-10.01
-14.26
-18.02
-20.59
-21.37
-19.98
-16.22
-10.18
-2.27
6.72
15.80
23.87
30.01
33.65
34.62
33.11
29.57
24.63
18.94
13.15
7.72
2.82
-1.69
-6.13
-10.78
-15.69
-20.53
-24.82
-28.15
-30.32
-31.41
-31.65
-31.32
-30.63
-29.84
-29.20
-28.97
-29.20
-29.69
-29.86
-29.04
-26.62
-22.43
-16.71
-10.05
-3.15
3.36
9.06
13.68
17.06
19.06
19.57
18.58
16.29
13.12
9.71
6.77
4.89
4.31
4.91
6.23
7.68
8.74
9.09
8.53
7.03
4.51
1.01
-3.44
-8.70
-14.64
-21.20
-28.28
-35.72
-43.04
-49.43
-53.99
-55.93
-54.93
-51.23
-45.50
-38.58
-31.25
-24.08
-17.55
-12.03
-7.89
-5.39
-4.64
-5.47
-7.44
-9.91
-12.12
-13.40
-13.32
-11.82
-9.36
-6.69
-4.74
-4.26
-5.64
-8.77
-13.17
-18.15
-22.99
-27.06
-29.77
-30.55
-28.99
-24.95
-18.69
-10.89
-2.50
5.58
12.75
18.86
23.99
28.35
31.97
34.76
36.61
37.61
38.05
38.33
38.76
39.42
40.21
40.99
41.71
42.53
43.68
45.27
47.18
49.04
50.36
50.70
49.82
47.70
44.48
40.28
35.24
29.53
23.45
17.40
11.78
6.91
2.88
-0.31
-2.63
-3.93
-3.93
-2.46
0.29
3.77
7.17
9.69
10.79
10.26
8.11
4.50
-0.36
-6.17
-12.39
-18.34
-23.32
-26.85
-28.81
-29.43
-29.05
-27.93
-26.17
-23.81
-20.94
-17.84
-14.91
-12.52
-10.95
-10.24
-10.29
-10.87
-11.60
-12.02
-11.58
-9.76
-6.36
-1.55
4.03
9.43
13.75
16.41
17.23
16.43
14.36
11.39
7.77
3.59
-1.14
-6.58
-12.93
-20.35
-28.85
-38.03
-47.16
-55.36
-61.86
-66.32
-68.85
-69.96
-70.19
-69.92
-69.12
-67.45
-64.32
-59.20
-51.76
-41.99
-30.33
-17.44
-4.22
8.41
19.59
28.57
34.85
38.28
39.11
37.95
35.58
32.67
29.63
26.58
23.50
20.40
17.46
14.99
13.27
12.50
12.59
13.36
14.49
15.65
16.49
16.61
15.76
13.83
11.06
8.01
5.47
4.28
4.99
7.62
11.70
16.51
21.32
25.73
29.66
33.23
36.48
39.20
40.98
41.37
40.05
37.05
32.77
27.84
22.93
18.55
14.89
11.94
9.50
7.34
5.31
3.33
1.33
-0.79
-3.25
-6.24
-9.82
-13.82
-17.71
-20.72
-21.97
-20.77
-16.89
-10.61
-2.74
5.69
13.75
20.95
27.20
32.53
36.86
39.84
40.94
39.84
36.81
32.68
28.58
25.43
23.50
22.33
21.12
19.18
16.27
12.55
8.30
3.49
-2.19
-9.20
-17.65
-27.10
-36.51
-44.63
-50.36
-53.06
-52.52
-48.93
-42.75
-34.49
-24.76
-14.21
-3.45
6.95
16.47
24.53
30.53
33.83
33.99
30.94
25.12
17.46
9.24
1.72
-4.05
-7.51
-8.60
-7.69
-5.50
-2.80
-0.28
1.56
2.38
2.05
0.63
-1.53
-3.74
-5.05
-4.49
-1.44
4.09
11.43
19.41
26.74
32.27
35.32
35.76
33.93
30.54
26.48
22.57
19.43
17.27
15.87
14.73
13.23
10.92
7.67
3.73
-0.33
-3.81
-6.23
-7.53
-8.21
-9.26
-11.74
-16.33
-22.92
-30.58
-37.90
-43.56
-46.87
-47.84
-46.99
-44.77
-41.32
-36.44
-29.94
-21.97
-13.15
-4.41
3.37
9.65
14.29
17.34
18.82
18.65
16.69
12.97
7.87
2.10
-3.46
-7.91
-10.58
-11.25
-10.25
-8.27
-6.24
-5.05
-5.30
-7.25
-10.83
-15.55
-20.59
-24.84
-27.09
-26.39
-22.44
-15.73
-7.40
1.18
8.95
15.39
20.53
24.63
27.92
30.40
31.91
32.23
31.31
29.16
25.94
21.90
17.26
12.29
7.25
2.36
-2.24
-6.53
-10.65
-14.83
-19.35
-24.44
-30.14
-36.18
-41.90
-46.36
-48.45
-47.32
-42.65
-34.84
-24.90
-14.12
-3.77
5.33
12.81
18.65
22.97
25.81
27.13
26.87
25.16
22.33
18.90
15.41
12.25
9.53
7.18
4.96
2.66
0.10
-2.77
-5.98
-9.56
-13.59
-18.10
-22.95
-27.80
-32.00
-34.70
-35.08
-32.60
-27.21
-19.47
-10.38
-1.10
7.34
14.33
19.65
23.38
25.64
26.46
25.84
23.84
20.72
17.03
13.39
10.34
8.07
6.53
5.44
4.57
3.78
3.07
2.47
1.92
1.28
0.24
-1.57
-4.52
-8.84
-14.46
-20.83
-26.90
-31.43
-33.32
-32.05
-27.81
-21.47
-14.15
-6.82
-0.12
5.67
10.41
13.99
16.27
17.18
16.81
15.43
13.39
11.00
8.51
6.12
4.07
2.56
1.69
1.32
1.24
1.18
1.07
0.98
0.98
0.93
0.45
-0.96
-3.40
-6.49
-9.28
-10.73
-10.05
-7.17
-2.57
3.05
9.09
15.29
21.54
27.73
33.43
38.02
40.81
41.44
39.94
36.67
32.14
26.72
20.70
14.34
8.02
2.32
-2.21
-5.15
-6.48
-6.60
-6.14
-5.82
-6.30
-8.02
-11.12
-15.45
-20.43
-25.12
-28.39
-29.25
-27.12
-22.08
-14.74
-6.05
3.01
11.69
19.49
26.10
31.33
35.03
37.18
37.89
37.46
36.17
34.26
31.69
28.25
23.67
17.85
10.99
3.64
-3.55
-9.98
-15.35
-19.72
-23.34
-26.62
-29.91
-33.44
-37.24
-40.95
-43.90
-45.11
-43.63
-38.82
-30.65
-19.76
-7.31
5.35
16.96
26.59
33.72
38.10
39.72
38.76
35.59
30.84
25.35
20.02
15.59
12.40
10.34
8.88
7.26
4.83
1.32
-3.12
-7.95
-12.59
-16.56
-19.70
-22.16
-24.24
-26.29
-28.50
-30.83
-32.99
-34.45
-34.63
-33.05
-29.57
-24.40
-18.03
-10.99
-3.68
3.65
10.88
17.80
23.97
28.83
31.86
32.80
31.84
29.48
26.36
23.05
19.83
16.76
13.79
10.88
8.07
5.46
3.14
1.12
-0.64
-2.16
-3.44
-4.43
-5.17
-5.80
-6.61
-7.93
-9.94
-12.51
-15.18
-17.22
-17.91
-16.75
-13.69
-9.12
-3.65
2.00
7.29
11.87
15.58
18.31
19.95
20.38
19.60
17.77
15.30
12.73
10.52
8.93
7.90
7.16
6.31
4.99
2.99
0.20
-3.33
-7.50
-12.13
-16.95
-21.71
-26.21
-30.40
-34.37
-38.21
-41.93
-45.34
-48.02
-49.48
-49.32
-47.29
-43.41
-37.84
-30.88
-22.94
-14.54
-6.33
1.06
7.10
11.50
14.29
15.81
16.57
17.13
17.90
19.04
20.43
21.79
22.80
23.23
22.97
22.08
20.77
19.30
17.94
16.93
16.39
16.30
16.45
16.54
16.30
15.67
14.84
14.27
14.49
15.87
18.54
22.36
27.08
32.46
38.30
44.34
50.18
55.18
58.66
60.11
59.34
56.51
52.06
46.46
40.09
33.25
26.24
19.33
12.77
6.75
1.36
-3.38
-7.47
-10.91
-13.75
-16.12
-18.24
-20.28
-22.25
-23.94
-25.01
-25.05
-23.64
-20.48
-15.47
-8.78
-1.04
6.81
13.61
18.37
20.63
20.55
18.78
16.07
12.97
9.62
5.93
1.76
-2.86
-7.70
-12.33
-16.30
-19.25
-20.95
-21.32
-20.42
-18.48
-15.83
-12.85
-9.94
-7.46
-5.61
-4.51
-4.25
-4.78
-5.98
-7.51
-8.81
-9.27
-8.34
-5.94
-2.40
1.49
4.81
6.85
7.32
6.41
4.56
2.29
0.03
-1.89
-3.21
-3.75
-3.50
-2.72
-1.94
-1.79
-2.76
-4.96
-8.12
-11.64
-14.82
-17.06
-18.02
-17.60
-16.06
-13.85
-11.57
-9.79
-8.90
-8.94
-9.65
-10.51
-10.90
-10.35
-8.59
-5.68
-1.98
1.91
5.29
7.54
8.36
7.86
6.47
4.78
3.26
2.08
1.09
-0.06
-1.67
-3.90
-6.65
-9.69
-12.71
-15.46
-17.80
-19.64
-20.98
-21.89
-22.49
-22.98
-23.63
-24.71
-26.39
-28.62
-31.01
-32.95
-33.72
-32.75
-29.85
-25.29
-19.68
-13.75
-8.13
-3.21
0.84
3.98
6.16
7.37
7.60
6.96
5.74
4.29
2.94
1.86
1.07
0.44
-0.13
-0.78
-1.57
-2.56
-3.83
-5.44
-7.41
-9.73
-12.34
-15.16
-18.11
-21.08
-23.94
-26.55
-28.73
-30.26
-30.83
-30.09
-27.76
-23.69
-18.07
-11.45
-4.58
1.78
7.12
11.30
14.46
16.78
18.37
19.23
19.34
18.82
17.89
16.84
15.83
14.88
13.97
13.16
12.65
12.64
13.23
14.23
15.20
15.63
15.06
13.28
10.27
6.24
1.59
-2.98
-6.59
-8.27
-7.36
-3.73
2.15
9.33
16.78
23.69
29.65
34.55
38.40
41.23
42.97
43.52
42.80
40.80
37.62
33.47
28.70
23.72
18.93
14.64
11.03
8.13
5.99
4.58
3.81
3.38
2.71
1.09
-2.16
-7.35
-14.26
-22.11
-29.76
-36.02
-39.92
-40.90
-38.91
-34.38
-28.10
-21.06
-14.28
-8.61
-4.64
-2.64
-2.61
-4.26
-6.98
-9.94
-12.22
-13.03
-12.01
-9.37
-5.84
-2.39
0.12
1.23
1.00
-0.09
-1.46
-2.58
-3.18
-3.26
-3.09
-3.09
-3.86
-5.91
-9.54
-14.62
-20.54
-26.26
-30.58
-32.47
-31.37
-27.35
-21.00
-13.30
-5.33
1.99
7.98
12.31
14.87
15.78
15.27
13.67
11.36
8.80
6.47
4.79
3.91
3.71
3.76
3.55
2.75
1.47
0.12
-0.68
-0.49
0.73
2.63
4.60
6.04
6.54
5.88
3.89
0.49
-4.31
-10.19
-16.42
-21.97
-25.74
-26.99
-25.63
-22.15
-17.45
-12.42
-7.58
-3.05
1.42
6.13
11.18
16.32
21.06
24.81
27.12
27.86
27.10
25.19
22.49
19.38
16.13
12.99
10.17
7.83
6.07
4.77
3.65
2.33
0.42
-2.34
-5.93
-10.10
-14.33
-18.06
-20.76
-22.08
-21.88
-20.26
-17.47
-13.89
-9.95
-6.16
-2.96
-0.73
0.37
0.42
-0.20
-1.01
-1.55
-1.51
-0.85
0.32
1.77
3.30
4.76
6.11
7.34
8.44
9.31
9.82
9.81
9.13
7.67
5.39
2.42
-0.96
-4.35
-7.31
-9.53
-10.86
-11.41
-11.40
-11.08
-10.66
-10.28
-10.06
-10.06
-10.26
-10.57
-10.79
-10.66
-9.97
-8.63
-6.63
-4.09
-1.18
1.88
4.79
7.16
8.59
8.77
7.65
5.41
2.48
-0.64
-3.42
-5.44
-6.48
-6.45
-5.50
-3.90
-2.01
-0.14
1.49
2.68
3.22
2.84
1.33
-1.48
-5.49
-10.41
-15.74
-20.85
-25.15
-28.01
-28.97
-27.70
-24.13
-18.43
-11.09
-2.80
5.59
13.22
19.38
23.61
25.77
26.11
25.16
23.65
22.27
21.53
21.73
22.96
25.03
27.58
29.96
31.44
31.36
29.37
25.61
20.67
15.29
10.12
5.49
1.41
-2.38
-6.09
-9.90
-13.84
-17.90
-21.98
-25.85
-29.07
-31.04
-31.19
-29.16
-25.04
-19.36
-12.90
-6.45
-0.57
4.45
8.52
11.58
13.59
14.45
14.25
13.25
11.91
10.73
10.01
9.87
10.10
10.45
10.58
10.30
9.47
8.06
6.12
3.80
1.33
-1.05
-3.14
-4.85
-6.22
-7.34
-8.39
-9.57
-11.22
-13.71
-17.37
-22.13
-27.41
-32.09
-34.86
-34.77
-31.51
-25.60
-18.09
-10.11
-2.55
4.15
9.87
14.64
18.50
21.42
23.32
24.11
23.66
21.89
18.72
14.22
8.70
2.67
-3.15
-8.00
-11.17
-12.25
-11.13
-8.16
-4.14
-0.13
2.70
3.43
1.61
-2.63
-8.67
-15.59
-22.39
-28.19
-32.30
-34.20
-33.57
-30.31
-24.61
-16.97
-8.11
1.16
10.15
18.41
25.70
31.89
36.86
40.42
42.33
42.40
40.63
37.17
32.34
26.48
20.02
13.37
7.01
1.46
-2.83
-5.63
-7.03
-7.50
-7.82
-8.85
-11.27
-15.34
-20.87
-27.22
-33.52
-38.81
-42.26
-43.23
-41.36
-36.58
-29.20
-19.87
-9.51
0.86
10.37
18.47
24.91
29.62
32.48
33.20
31.53
27.42
21.32
14.16
7.05
0.96
-3.59
-6.56
-8.20
-8.77
-8.42
-7.25
-5.43
-3.37
-1.67
-0.90
-1.33
-2.92
-5.31
-8.12
-11.04
-13.88
-16.43
-18.36
-19.20
-18.47
-15.92
-11.64
-6.18
-0.27
5.38
10.39
14.74
18.71
22.61
26.58
30.48
33.92
36.38
37.40
36.71
34.33
30.62
26.13
21.50
17.20
13.47
10.26
7.41
4.78
2.31
-0.01
-2.33
-5.03
-8.57
-13.25
-18.96
-25.07
-30.60
-34.56
-36.35
-35.88
-33.50
-29.83
-25.43
-20.69
-15.75
-10.53
-4.85
1.48
8.47
15.90
23.15
29.34
33.53
34.97
33.40
29.14
23.07
16.37
10.24
5.60
2.93
2.22
3.07
4.81
6.63
7.80
7.69
5.99
2.66
-2.02
-7.58
-13.34
-18.57
-22.50
-24.47
-24.02
-21.02
-15.73
-8.75
-0.90
7.01
14.20
20.07
24.20
26.35
26.49
24.84
21.80
17.88
13.64
9.58
6.18
3.83
2.80
3.14
4.57
6.55
8.44
9.67
9.87
8.90
6.78
3.61
-0.45
-5.14
-10.06
-14.77
-18.92
-22.21
-24.42
-25.31
-24.60
-21.99
-17.43
-11.16
-3.73
4.18
12.00
19.33
25.89
31.47
35.74
38.26
38.64
36.61
32.20
25.74
17.81
9.21
0.80
-6.62
-12.46
-16.50
-18.87
-19.98
-20.33
-20.39
-20.48
-20.78
-21.33
-22.12
-23.04
-23.91
-24.50
-24.52
-23.65
-21.51
-17.71
-11.93
-4.09
5.55
16.31
27.24
37.32
45.60
51.29
53.79
52.68
47.82
39.48
28.51
16.24
4.29
-5.89
-13.38
-18.01
-20.34
-21.34
-22.09
-23.37
-25.49
-28.24
-31.04
-33.25
-34.30
-33.94
-32.26
-29.64
-26.75
-24.33
-23.00
-23.06
-24.26
-25.85
-26.78
-26.10
-23.21
-18.16
-11.47
-3.91
3.73
10.85
17.10
22.21
26.09
28.81
30.65
32.08
33.69
35.84
38.46
40.98
42.43
41.74
38.24
31.90
23.42
13.98
4.83
-3.07
-9.32
-14.02
-17.56
-20.42
-22.92
-25.16
-27.01
-28.12
-28.12
-26.64
-23.49
-18.70
-12.56
-5.54
1.88
9.24
16.21
22.45
27.67
31.54
33.83
34.41
33.38
30.99
27.61
23.67
19.55
15.52
11.77
8.36
5.34
2.75
0.69
-0.69
-1.29
-1.24
-1.00
-1.31
-2.96
-6.49
-11.95
-18.82
-26.24
-33.11
-38.44
-41.38
-41.41
-38.37
-32.48
-24.35
-14.83
-4.87
4.77
13.54
21.15
27.38
31.95
34.58
35.13
33.78
31.06
27.63
24.09
20.66
17.24
13.59
9.56
5.32
1.20
-2.46
-5.51
-8.06
-10.32
-12.34
-13.96
-14.89
-14.88
-14.02
-12.74
-11.72
-11.51
-12.25
-13.58
-14.74
-14.95
-13.74
-11.19
-7.80
-4.35
-1.51
0.38
1.40
1.85
2.08
2.31
2.63
3.01
3.46
3.98
4.55
5.03
5.19
4.79
3.72
2.12
0.36
-1.09
-1.80
-1.52
-0.24
1.79
4.15
6.22
7.40
7.18
5.36
2.17
-1.71
-5.31
-7.62
-7.88
-5.83
-1.73
3.69
9.52
14.90
19.23
22.30
24.14
24.90
24.61
23.25
20.79
17.42
13.54
9.70
6.32
3.59
1.42
-0.36
-1.85
-3.02
-3.79
-4.28
-4.86
-6.09
-8.39
-11.85
-16.19
-20.91
-25.59
-29.98
-34.05
-37.76
-40.90
-43.06
-43.73
-42.58
-39.61
-35.19
-29.93
-24.49
-19.30
-14.56
-10.23
-6.19
-2.37
1.24
4.54
7.36
9.58
11.06
11.71
11.47
10.33
8.35
5.68
2.56
-0.71
-3.84
-6.55
-8.66
-10.14
-11.14
-12.00
-13.13
-14.96
-17.69
-21.26
-25.34
-29.37
-32.61
-34.29
-33.70
-30.35
-24.17
-15.54
-5.33
5.29
15.13
23.28
29.33
33.37
35.89
37.53
38.82
40.05
41.19
42.01
42.20
41.55
39.98
37.62
34.64
31.32
27.91
24.64
21.71
19.28
17.47
16.31
15.72
15.48
15.28
14.70
13.39
11.11
7.77
3.45
-1.64
-7.18
-12.82
-18.06
-22.28
-24.85
-25.28
-23.48
-19.79
-14.88
-9.51
-4.27
0.55
4.86
8.60
11.58
13.48
14.00
13.02
10.71
7.45
3.68
-0.19
-3.84
-7.04
-9.67
-11.67
-13.09
-14.13
-15.04
-16.06
-17.33
-18.87
-20.62
-22.44
-24.14
-25.48
-26.22
-26.22
-25.44
-23.92
-21.74
-18.93
-15.47
-11.39
-6.77
-1.83
3.17
7.91
12.13
15.57
17.97
19.09
18.78
17.15
14.64
11.90
9.60
8.13
7.54
7.56
7.77
7.89
7.82
7.64
7.47
7.29
6.92
6.10
4.57
2.20
-0.96
-4.78
-9.09
-13.67
-18.18
-22.10
-24.69
-25.18
-23.10
-18.44
-11.78
-4.08
3.60
10.38
15.73
19.51
21.81
22.84
22.78
21.83
20.19
18.17
16.16
14.58
13.71
13.54
13.77
13.85
13.27
11.85
9.83
7.70
5.97
4.91
4.41
4.12
3.58
2.34
-0.04
-3.83
-9.11
-15.55
-22.29
-28.10
-31.69
-32.19
-29.48
-24.17
-17.38
-10.30
-3.92
1.13
4.58
6.37
6.62
5.61
3.72
1.36
-1.11
-3.39
-5.27
-6.58
-7.19
-7.07
-6.32
-5.19
-4.03
-3.19
-2.92
-3.37
-4.56
-6.41
-8.71
-11.07
-12.96
-13.80
-13.09
-10.68
-6.84
-2.16
2.59
6.74
9.91
12.05
13.38
14.19
14.78
15.32
15.87
16.42
16.85
17.03
16.78
15.92
14.33
11.99
9.05
5.76
2.47
-0.52
-3.09
-5.33
-7.50
-9.83
-12.30
-14.48
-15.67
-15.10
-12.31
-7.45
-1.26
5.28
11.27
16.23
20.17
23.37
26.04
28.14
29.34
29.17
27.26
23.54
18.25
11.92
5.21
-1.21
-6.72
-10.75
-12.86
-12.83
-10.75
-7.22
-3.27
-0.17
0.97
-0.38
-3.85
-8.29
-12.17
-14.14
-13.52
-10.42
-5.57
0.03
5.44
9.88
12.75
13.62
12.28
8.89
4.03
-1.31
-6.01
-9.17
-10.36
-9.68
-7.66
-5.01
-2.42
-0.47
0.45
0.16
-1.27
-3.60
-6.51
-9.79
-13.32
-17.04
-20.70
-23.78
-25.58
-25.43
-23.01
-18.46
-12.29
-5.15
2.37
9.86
16.92
23.17
28.20
31.74
33.78
34.58
34.49
33.83
32.69
30.95
28.45
25.09
20.92
16.12
10.91
5.53
0.12
-5.28
-10.65
-15.96
-21.08
-25.82
-30.04
-33.73
-36.95
-39.75
-41.92
-42.98
-42.40
-39.79
-35.24
-29.26
-22.56
-15.74
-9.18
-3.05
2.50
7.21
10.71
12.69
13.04
11.91
9.59
6.42
2.75
-1.10
-4.84
-8.19
-11.04
-13.42
-15.53
-17.53
-19.48
-21.28
-22.69
-23.41
-23.29
-22.34
-20.82
-19.21
-17.96
-17.36
-17.32
-17.47
-17.26
-16.29
-14.41
-11.81
-8.91
-6.10
-3.71
-1.88
-0.64
0.05
0.26
0.06
-0.44
-1.18
-2.01
-2.78
-3.30
-3.37
-2.93
-1.99
-0.70
0.78
2.31
3.94
5.75
7.81
10.14
12.55
14.82
16.67
17.89
18.33
17.91
16.66
14.69
12.29
9.85
7.94
7.19
8.09
10.93
15.75
22.29
30.15
38.82
47.68
56.08
63.29
68.60
71.37
71.26
68.29
62.99
56.30
49.24
42.78
37.43
33.11
29.25
25.10
20.16
14.53
8.93
4.39
1.81
1.55
3.25
6.05
8.82
10.52
10.48
8.44
4.65
-0.20
-5.09
-8.92
-10.86
-10.64
-8.71
-6.02
-3.71
-2.66
-3.25
-5.40
-8.66
-12.55
-16.61
-20.49
-23.82
-26.17
-27.04
-26.20
-23.77
-20.40
-17.07
-14.77
-14.13
-15.24
-17.67
-20.74
-23.89
-26.85
-29.74
-32.83
-36.32
-40.26
-44.38
-48.15
-50.94
-52.13
-51.22
-47.94
-42.40
-35.08
-26.75
-18.29
-10.52
-4.04
0.86
4.15
5.86
6.09
5.04
2.95
0.27
-2.39
-4.52
-5.78
-6.15
-5.91
-5.45
-5.08
-4.95
-5.07
-5.43
-6.06
-7.02
-8.36
-10.07
-12.07
-14.18
-16.28
-18.29
-20.23
-22.14
-23.92
-25.21
-25.34
-23.62
-19.58
-13.24
-5.22
3.43
11.60
18.43
23.53
26.82
28.45
28.60
27.48
25.38
22.77
20.20
18.18
17.02
16.71
17.02
17.52
17.72
17.18
15.64
13.10
9.77
6.07
2.38
-1.04
-4.16
-7.07
-9.87
-12.54
-14.92
-16.86
-18.27
-19.18
-19.60
-19.39
-18.23
-15.73
-11.67
-6.22
0.07
6.40
11.99
16.37
19.36
21.10
21.80
21.65
20.85
19.59
18.05
16.39
14.65
12.78
10.71
8.47
6.21
4.16
2.53
1.40
0.65
0.11
-0.43
-1.11
-1.96
-3.01
-4.24
-5.57
-6.92
-8.25
-9.53
-10.85
-12.31
-13.93
-15.56
-16.85
-17.35
-16.67
-14.65
-11.44
-7.43
-3.15
0.99
4.66
7.72
10.08
11.71
12.65
13.04
13.15
13.34
13.90
14.92
16.21
17.39
18.03
17.86
16.92
15.47
13.94
12.78
12.35
12.84
14.27
16.43
18.93
21.27
23.01
23.86
23.80
23.01
21.77
20.25
18.48
16.29
13.42
9.67
5.04
-0.19
-5.54
-10.45
-14.44
-17.23
-18.74
-19.05
-18.39
-17.03
-15.26
-13.43
-11.79
-10.59
-9.90
-9.68
-9.66
-9.51
-8.80
-7.35
-5.19
-2.75
-0.63
0.50
0.22
-1.55
-4.53
-8.23
-12.13
-15.82
-18.98
-21.40
-22.96
-23.66
-23.60
-22.95
-21.85
-20.31
-18.26
-15.65
-12.63
-9.54
-6.85
-4.89
-3.68
-2.85
-1.85
-0.17
2.48
6.06
10.29
14.74
18.90
22.29
24.50
25.31
24.78
23.20
21.07
18.86
16.87
15.15
13.52
11.70
9.47
6.64
3.18
-0.88
-5.34
-9.91
-14.16
-17.76
-20.44
-22.15
-22.92
-22.79
-21.71
-19.57
-16.32
-12.03
-7.02
-1.71
3.45
8.09
12.01
15.12
17.40
18.80
19.27
18.78
17.41
15.45
13.39
11.83
11.34
12.24
14.53
17.78
21.27
24.15
25.60
24.95
21.84
16.25
8.59
-0.36
-9.54
-17.91
-24.69
-29.52
-32.47
-33.79
-33.67
-32.11
-29.03
-24.43
-18.53
-11.80
-4.83
1.93
8.25
14.06
19.35
23.90
27.32
29.18
29.24
27.60
24.64
20.87
16.75
12.62
8.71
5.18
2.17
-0.26
-2.23
-4.14
-6.61
-10.38
-16.10
-24.16
-34.55
-46.78
-59.87
-72.34
-82.40
-88.30
-88.68
-82.90
-71.19
-54.47
-34.20
-12.13
9.98
30.53
48.38
62.84
73.76
81.28
85.68
87.18
85.98
82.35
76.77
69.80
61.90
53.19
43.40
32.19
19.45
5.65
-8.19
-20.77
-30.88
-37.61
-40.52
-39.63
-35.39
-28.66
-20.70
-12.97
-6.90
-3.64
-3.78
-7.28
-13.49
-21.31
-29.42
-36.48
-41.43
-43.60
-42.80
-39.26
-33.55
-26.39
-18.59
-10.94
-4.16
1.19
4.81
6.72
7.09
6.34
4.92
3.42
2.45
2.59
4.13
6.87
10.08
12.67
13.51
11.89
7.77
1.71
-5.27
-12.06
-17.70
-21.53
-23.21
-22.71
-20.23
-16.24
-11.39
-6.39
-1.90
1.67
4.16
5.63
6.36
6.65
6.76
6.88
7.02
7.07
6.89
6.33
5.37
4.15
2.94
2.01
1.54
1.46
1.43
1.03
-0.13
-2.10
-4.57
-6.91
-8.42
-8.54
-7.10
-4.31
-0.70
3.16
6.89
10.40
13.77
17.04
20.05
22.38
23.55
23.24
21.53
18.87
15.88
13.05
10.61
8.51
6.56
4.64
2.77
1.07
-0.34
-1.40
-2.19
-2.87
-3.63
-4.76
-6.48
-8.88
-11.80
-14.70
-16.82
-17.42
-16.01
-12.55
-7.44
-1.28
5.28
11.69
17.49
22.24
25.56
27.20
27.12
25.55
22.90
19.65
16.25
13.04
10.34
8.40
7.37
7.24
7.77
8.63
9.40
9.82
9.71
9.02
7.65
5.44
2.21
-2.07
-7.14
-12.41
-17.02
-20.17
-21.33
-20.47
-18.03
-14.80
-11.55
-8.85
-6.92
-5.64
-4.78
-4.08
-3.42
-2.76
-2.05
-1.18
0.04
1.79
4.15
7.05
10.27
13.52
16.55
19.17
21.27
22.68
23.20
22.55
20.40
16.52
10.85
3.55
-4.90
-13.71
-21.92
-28.51
-32.69
-34.13
-33.00
-29.89
-25.47
-20.22
-14.31
-7.70
-0.35
7.47
15.11
21.71
26.49
29.04
29.42
28.12
25.72
22.73
19.42
15.91
12.35
8.96
6.07
4.03
2.90
2.43
2.13
1.42
-0.08
-2.38
-5.22
-8.15
-10.68
-12.42
-13.11
-12.56
-10.82
-8.12
-4.91
-1.76
0.91
2.94
4.49
5.91
7.54
9.46
11.46
13.14
14.06
13.93
12.72
10.54
7.63
4.27
0.75
-2.62
-5.52
-7.69
-8.94
-9.26
-8.79
-7.80
-6.56
-5.37
-4.46
-4.09
-4.51
-5.91
-8.23
-11.04
-13.65
-15.30
-15.51
-14.16
-11.64
-8.49
-5.28
-2.36
0.12
2.11
3.62
4.62
5.08
5.01
4.50
3.74
2.95
2.31
1.88
1.55
1.11
0.34
-0.85
-2.29
-3.68
-4.72
-5.25
-5.42
-5.53
-5.91
-6.74
-8.01
-9.59
-11.28
-12.85
-13.98
-14.24
-13.22
-10.67
-6.69
-1.73
3.54
8.45
12.49
15.42
17.18
17.84
17.48
16.24
14.26
11.80
9.11
6.48
4.09
2.02
0.26
-1.31
-2.80
-4.23
-5.54
-6.60
-7.27
-7.48
-7.31
-6.90
-6.40
-5.96
-5.65
-5.55
-5.68
-5.99
-6.27
-6.18
-5.36
-3.64
-1.11
1.85
4.75
7.25
9.24
10.86
12.29
13.67
14.98
16.11
16.94
17.37
17.37
16.91
15.87
14.17
11.77
8.80
5.56
2.43
-0.25
-2.26
-3.59
-4.44
-5.17
-6.24
-8.07
-11.00
-15.04
-19.87
-24.86
-29.21
-32.17
-33.24
-32.25
-29.30
-24.68
-18.77
-12.00
-4.87
2.06
8.28
13.42
17.26
19.73
20.82
20.61
19.23
16.92
14.01
10.83
7.62
4.47
1.34
-1.87
-5.23
-8.81
-12.73
-17.10
-21.99
-27.30
-32.68
-37.53
-41.20
-43.06
-42.71
-39.96
-34.87
-27.78
-19.30
-10.19
-1.21
7.07
14.43
20.96
26.87
32.30
37.13
40.96
43.33
43.94
42.80
40.25
36.87
33.18
29.64
26.47
23.80
21.70
20.22
19.36
18.96
18.74
18.32
17.38
15.65
13.00
9.35
4.63
-1.20
-8.07
-15.65
-23.33
-30.18
-35.24
-37.64
-36.95
-33.29
-27.24
-19.66
-11.43
-3.23
4.54
11.53
17.37
21.57
23.67
23.48
21.24
17.61
13.40
9.25
5.48
2.11
-0.95
-3.66
-5.80
-7.08
-7.25
-6.32
-4.48
-2.08
0.39
2.48
3.78
4.11
3.48
2.20
0.74
-0.48
-1.25
-1.67
-2.02
-2.62
-3.63
-5.01
-6.59
-8.28
-10.19
-12.60
-15.77
-19.71
-24.09
-28.30
-31.75
-34.08
-35.35
-35.93
-36.22
-36.41
-36.45
-36.15
-35.43
-34.45
-33.54
-33.08
-33.26
-34.01
-35.03
-35.87
-36.02
-34.95
-32.17
-27.32
-20.35
-11.69
-2.17
7.13
15.17
21.29
25.36
27.73
29.03
29.87
30.68
31.61
32.54
33.27
33.55
33.20
32.13
30.36
28.02
25.31
22.49
19.72
17.06
14.42
11.64
8.67
5.52
2.39
-0.46
-2.79
-4.36
-4.92
-4.26
-2.28
0.99
5.22
9.85
14.29
18.08
20.98
22.99
24.19
24.61
24.20
22.90
20.75
17.90
14.58
11.02
7.42
3.96
0.87
-1.59
-3.27
-4.17
-4.59
-5.01
-5.98
-7.94
-11.02
-14.99
-19.24
-22.94
-25.19
-25.25
-22.77
-17.91
-11.30
-3.88
3.32
9.46
13.97
16.62
17.42
16.64
14.66
12.06
9.35
6.92
4.83
2.83
0.56
-2.21
-5.32
-8.26
-10.32
-10.99
-10.15
-8.16
-5.68
-3.51
-2.36
-2.75
-4.98
-8.99
-14.37
-20.23
-25.36
-28.59
-29.10
-26.76
-22.08
-15.95
-9.30
-2.81
3.13
8.27
12.30
14.81
15.41
14.01
11.02
7.38
4.22
2.48
2.55
4.13
6.40
8.42
9.48
9.28
7.94
5.78
3.13
0.10
-3.27
-6.95
-10.73
-14.18
-16.71
-17.77
-17.09
-14.78
-11.22
-6.89
-2.12
2.94
8.22
13.50
18.25
21.72
23.13
21.99
18.39
13.00
6.90
1.30
-2.83
-4.95
-4.93
-3.04
0.11
3.72
6.81
8.42
7.80
4.60
-0.93
-7.93
-15.02
-20.70
-23.68
-23.22
-19.36
-12.84
-4.91
3.02
9.75
14.57
17.41
18.63
18.88
18.71
18.51
18.41
18.31
18.04
17.35
15.99
13.75
10.58
6.66
2.55
-1.04
-3.45
-4.39
-4.05
-3.04
-2.23
-2.37
-3.91
-6.84
-10.73
-14.72
-17.80
-18.97
-17.56
-13.48
-7.27
-0.03
6.97
12.66
16.51
18.53
19.11
18.82
18.14
17.36
16.62
15.96
15.39
14.88
14.35
13.67
12.68
11.22
9.20
6.63
3.65
0.46
-2.69
-5.63
-8.29
-10.75
-13.12
-15.41
-17.47
-18.94
-19.46
-18.76
-16.76
-13.58
-9.46
-4.72
0.30
5.26
9.77
13.40
15.87
17.02
16.90
15.75
13.93
11.88
10.01
8.66
8.02
8.06
8.58
9.15
9.27
8.42
6.25
2.69
-1.93
-6.96
-11.56
-14.96
-16.71
-16.73
-15.25
-12.65
-9.24
-5.26
-0.91
3.56
7.82
11.57
14.61
16.96
18.81
20.41
21.90
23.23
24.21
24.54
23.98
22.42
19.90
16.72
13.31
10.15
7.66
6.06
5.33
5.27
5.60
6.05
6.39
6.44
6.08
5.33
4.44
3.93
4.45
6.52
10.29
15.39
21.00
26.13
29.95
31.98
32.11
30.43
27.12
22.32
16.24
9.27
1.93
-5.24
-11.88
-17.82
-23.12
-27.83
-31.97
-35.53
-38.48
-40.86
-42.76
-44.34
-45.73
-47.02
-48.18
-49.02
-49.20
-48.21
-45.53
-40.93
-34.56
-27.03
-19.19
-11.80
-5.27
0.28
4.89
8.53
11.00
12.08
11.76
10.37
8.56
7.04
6.28
6.35
6.93
7.48
7.58
6.97
5.71
4.00
2.13
0.30
-1.41
-3.04
-4.74
-6.70
-9.06
-11.81
-14.66
-17.11
-18.58
-18.60
-17.02
-14.00
-10.00
-5.53
-1.09
3.00
6.51
9.27
11.16
12.11
12.16
11.45
10.18
8.60
6.93
5.31
3.79
2.30
0.71
-1.12
-3.27
-5.75
-8.51
-11.41
-14.21
-16.65
-18.49
-19.67
-20.33
-20.74
-21.17
-21.59
-21.59
-20.45
-17.53
-12.53
-5.81
1.76
9.06
15.11
19.33
21.50
21.73
20.24
17.41
13.71
9.83
6.41
3.95
2.52
1.81
1.25
0.31
-1.20
-3.17
-5.15
-6.68
-7.48
-7.55
-7.11
-6.52
-6.15
-6.23
-6.85
-7.85
-8.82
-9.19
-8.32
-5.82
-1.63
3.85
9.98
16.00
21.28
25.33
27.91
28.87
28.16
25.91
22.40
18.07
13.42
8.94
4.96
1.61
-1.00
-2.87
-3.99
-4.36
-4.05
-3.17
-1.91
-0.58
0.47
0.80
0.08
-1.83
-4.76
-8.12
-11.11
-12.88
-12.91
-11.12
-7.99
-4.29
-0.79
2.00
3.96
5.25
6.06
6.48
6.43
5.77
4.49
2.77
0.96
-0.56
-1.60
-2.16
-2.35
-2.35
-2.30
-2.36
-2.70
-3.52
-4.96
-7.00
-9.46
-12.09
-14.65
-16.93
-18.71
-19.61
-19.26
-17.32
-13.80
-9.10
-3.92
0.98
5.03
7.94
9.69
10.35
10.00
8.66
6.35
3.14
-0.96
-5.93
-11.68
-17.88
-23.82
-28.47
-30.74
-29.95
-26.06
-19.89
-12.81
-6.33
-1.64
0.74
0.97
-0.25
-2.04
-3.48
-3.86
-2.77
-0.07
4.06
9.20
14.76
20.08
24.55
27.67
29.14
28.89
27.13
24.24
20.71
17.05
13.58
10.44
7.61
5.04
2.81
1.20
0.60
1.35
3.49
6.71
10.47
14.07
16.96
18.79
19.50
19.26
18.36
17.12
15.73
14.22
12.34
9.63
5.65
0.18
-6.57
-13.86
-20.77
-26.38
-30.11
-31.83
-31.80
-30.49
-28.37
-25.84
-23.18
-20.63
-18.43
-16.78
-15.86
-15.71
-16.36
-17.78
-19.93
-22.76
-26.30
-30.49
-35.11
-39.63
-43.16
-44.65
-43.15
-38.19
-29.96
-19.22
-7.00
5.73
18.30
30.31
41.49
51.49
59.78
65.65
68.32
67.10
61.67
52.20
39.59
25.28
11.10
-1.32
-10.93
-17.43
-21.32
-23.54
-25.08
-26.67
-28.70
-31.17
-33.78
-36.03
-37.34
-37.14
-35.09
-31.16
-25.73
-19.49
-13.31
-8.05
-4.37
-2.63
-2.89
-5.03
-8.82
-14.00
-20.23
-26.96
-33.37
-38.43
-41.23
-41.32
-38.89
-34.83
-30.36
-26.53
-23.99
-22.80
-22.68
-23.17
-23.90
-24.42
-24.01
-21.80
-16.86
-8.69
2.39
15.33
28.61
40.88
51.37
59.99
67.02
72.73
77.00
79.34
79.26
76.48
71.15
63.81
55.15
45.82
36.31
27.00
18.12
9.88
2.37
-4.44
-10.70
-16.68
-22.52
-28.12
-33.08
-36.70
-38.27
-37.42
-34.18
-29.06
-22.77
-15.99
-9.23
-2.76
3.26
8.54
12.80
15.69
16.97
16.61
14.80
12.03
8.94
6.36
4.95
5.08
6.65
9.11
11.62
13.25
13.32
11.42
7.58
2.18
-4.03
-10.08
-14.91
-17.62
-17.69
-15.07
-10.20
-3.83
3.12
9.75
15.30
19.28
21.53
22.26
21.95
21.15
20.24
19.37
18.46
17.37
16.09
14.83
13.89
13.53
13.72
14.09
14.15
13.38
11.47
8.33
4.06
-1.10
-6.78
-12.41
-17.24
-20.45
-21.50
-20.33
-17.58
-14.31
-11.59
-10.07
-9.70
-9.84
-9.60
-8.24
-5.36
-0.96
4.62
10.85
17.02
22.32
25.87
27.03
25.51
21.58
15.97
9.60
3.32
-2.25
-6.87
-10.64
-13.86
-16.95
-20.20
-23.59
-26.70
-28.73
-28.74
-26.00
-20.28
-11.94
-1.78
9.21
20.02
29.70
37.35
42.13
43.44
41.09
35.46
27.45
18.24
9.06
0.96
-5.34
-9.46
-11.40
-11.53
-10.56
-9.44
-9.07
-10.08
-12.68
-16.56
-21.02
-25.07
-27.65
-27.87
-25.28
-20.01
-12.83
-4.88
2.65
8.93
13.66
17.07
19.59
21.64
23.41
24.83
25.67
25.70
24.81
22.90
20.00
16.15
11.59
6.65
1.88
-2.09
-4.79
-6.02
-6.10
-5.79
-6.11
-7.99
-11.97
-17.85
-24.79
-31.43
-36.25
-37.99
-35.93
-30.02
-20.91
-9.73
2.18
13.51
23.20
30.49
34.90
36.34
35.03
31.63
27.07
22.45
18.66
16.18
15.02
14.68
14.51
13.90
12.49
10.18
7.05
3.32
-0.73
-4.76
-8.46
-11.59
-14.04
-15.80
-16.91
-17.35
-17.05
-15.89
-13.79
-10.80
-7.10
-2.94
1.33
5.46
9.21
12.44
15.08
17.14
18.61
19.50
19.80
19.51
18.75
17.64
16.41
15.17
13.95
12.59
10.90
8.73
6.12
3.28
0.51
-1.96
-4.16
-6.29
-8.66
-11.49
-14.78
-18.20
-21.17
-23.03
-23.26
-21.67
-18.48
-14.24
-9.61
-5.24
-1.47
1.66
4.39
6.98
9.55
11.91
13.68
14.40
13.85
12.19
9.92
7.77
6.46
6.41
7.70
10.11
13.09
15.99
18.08
18.59
16.94
12.84
6.47
-1.42
-9.69
-17.06
-22.45
-25.26
-25.43
-23.32
-19.53
-14.64
-9.08
-3.09
3.15
9.48
15.65
21.30
26.04
29.54
31.61
32.13
30.89
27.61
22.01
14.12
4.59
-5.31
-14.03
-20.29
-23.60
-24.40
-23.71
-22.60
-21.76
-21.28
-20.93
-20.45
-19.89
-19.54
-19.66
-20.17
-20.55
-20.01
-17.93
-14.18
-9.32
-4.40
-0.49
1.74
2.38
2.08
1.74
2.01
3.00
4.31
5.33
5.55
4.79
3.27
1.40
-0.35
-1.62
-2.33
-2.57
-2.63
-2.77
-3.19
-3.98
-5.18
-6.95
-9.49
-13.02
-17.59
-22.98
-28.63
-33.73
-37.44
-39.09
-38.36
-35.26
-30.09
-23.40
-15.81
-8.05
-0.80
5.34
10.03
13.21
15.08
16.02
16.49
16.85
17.35
18.07
18.98
20.01
21.04
21.98
22.71
23.13
23.19
22.91
22.38
21.74
21.04
20.15
18.85
16.82
13.82
9.84
5.05
-0.14
-5.23
-9.63
-12.74
-14.08
-13.35
-10.57
-6.12
-0.62
5.19
10.62
15.11
18.27
19.80
19.62
17.88
15.07
11.92
9.19
7.38
6.58
6.50
6.59
6.41
5.79
4.83
3.80
3.01
2.68
2.90
3.59
4.55
5.43
5.84
5.48
4.30
2.64
1.12
0.52
1.34
3.70
7.19
11.04
14.45
16.83
18.12
18.67
19.18
20.36
22.73
26.34
30.82
35.36
38.99
40.78
40.16
37.16
32.30
26.46
20.54
15.14
10.47
6.39
2.52
-1.61
-6.36
-11.99
-18.45
-25.31
-31.82
-37.06
-40.31
-41.33
-40.39
-38.07
-34.98
-31.41
-27.37
-22.77
-17.71
-12.56
-7.81
-3.94
-1.16
0.47
0.95
0.23
-1.75
-4.94
-9.05
-13.52
-17.69
-20.96
-22.92
-23.38
-22.48
-20.60
-18.34
-16.37
-15.16
-14.81
-14.97
-15.08
-14.65
-13.60
-12.21
-10.92
-9.99
-9.32
-8.55
-7.38
-5.86
-4.49
-3.96
-4.74
-6.74
-9.34
-11.62
-12.82
-12.54
-10.85
-7.96
-4.12
0.63
6.25
12.57
19.14
25.26
30.28
33.84
36.00
37.06
37.37
37.07
36.02
34.01
30.97
27.17
23.12
19.41
16.39
13.99
11.69
8.79
4.75
-0.57
-6.83
-13.36
-19.51
-24.88
-29.42
-33.34
-36.82
-39.78
-41.90
-42.73
-42.13
-40.43
-38.40
-36.98
-36.84
-38.04
-40.01
-41.88
-42.80
-42.27
-40.27
-37.09
-33.08
-28.50
-23.48
-18.09
-12.42
-6.66
-1.06
4.02
8.20
11.14
12.69
13.06
12.74
12.37
12.51
13.41
14.96
16.90
18.95
21.00
23.11
25.30
27.44
29.23
30.15
29.81
28.12
25.40
22.39
19.95
18.81
19.24
21.03
23.65
26.39
28.73
30.42
31.47
32.05
32.42
32.84
33.49
34.33
34.99
34.80
33.12
29.53
24.04
17.14
9.64
2.53
-3.24
-7.07
-8.90
-9.49
-10.44
-13.91
-21.91
-35.32
-53.06
-72.13
-88.67
-99.28
-102.29
-98.29
-89.57
-79.10
-69.30
-61.58
-56.41
-54.25
-55.51
-60.33
-68.17
-77.58
-86.53
-93.02
-95.81
-94.76
-91.47
-87.97
-85.61
-84.33
-82.90
-79.61
-72.97
-62.20
-47.45
-30.79
-14.69
-0.90
10.20
19.10
26.41
32.22
36.17
37.73
35.33
28.14
17.00
3.99
-9.10
-22.15
-36.93
-55.91
-72.12
-79.17
-73.68
-57.23
-34.16
-8.68
15.77
36.13
49.51
51.97
41.60
18.22
-14.93
-50.79
-80.41
-96.01
-93.86
-75.25
-41.83
-1.12
38.68
72.68
100.86
127.02
156.36
192.94
238.11
289.70
341.06
383.42
408.44
410.75
389.51
348.63
295.26
237.11
179.88
125.29
72.33
19.23
-34.94
-89.61
-142.96
-192.47
-235.33
-268.79
-290.90
-300.75
-298.88
-287.28
-268.95
-247.05
-224.21
-202.22
-182.34
-165.77
-153.51
-146.12
-143.30
-143.83
-145.72
-146.70
-144.63
-137.77
-124.90
-105.39
-79.09
-46.69
-9.94
28.21
63.68
92.01
109.38
113.82
106.05
89.50
69.32
50.70
37.27
30.08
27.77
27.70
27.33
25.42
22.22
18.98
16.97
16.77
18.00
19.75
21.22
22.18
22.99
24.12
25.72
27.37
28.29
27.70
25.31
21.32
16.27
10.67
4.80
-1.32
-7.65
-13.85
-19.20
-22.71
-23.40
-20.72
-14.77
-6.26
3.65
13.73
22.91
30.50
36.16
39.82
41.60
41.73
40.48
38.12
34.95
31.25
27.27
23.26
19.36
15.58
11.86
8.05
3.97
-0.49
-5.36
-10.51
-15.61
-20.04
-23.05
-23.85
-21.86
-16.89
-9.28
0.14
10.34
20.31
29.36
37.17
43.74
49.17
53.49
56.55
58.15
58.21
56.90
54.71
52.30
50.22
48.75
47.79
46.97
45.82
44.01
41.34
37.84
33.66
29.22
25.16
22.37
21.84
24.39
30.37
39.48
50.90
63.57
76.62
89.53
102.13
114.24
125.48
135.01
141.83
145.10
144.34
139.53
130.92
118.80
103.44
85.08
64.23
41.77
18.97
-2.75
-22.21
-38.85
-52.81
-64.84
-75.66
-85.45
-93.45
-98.08
-97.55
-90.70
-77.67
-60.22
-41.32
-24.41
-12.45
-7.23
-9.04
-16.59
-27.38
-38.38
-46.84
-51.23
-51.66
-49.93
-48.50
-49.33
-52.90
-57.81
-61.34
-60.66
-54.09
-41.82
-25.89
-9.36
4.91
15.25
21.54
24.77
26.27
27.20
28.29
29.89
32.34
35.98
40.93
46.84
52.76
57.43
59.84
59.69
57.58
54.71
52.21
50.71
50.17
50.00
49.48
48.11
45.71
42.48
38.97
35.89
33.84
33.19
33.95
35.80
38.28
41.22
44.96
50.33
58.31
69.59
84.10
100.80
117.98
133.94
147.65
159.25
169.73
180.11
190.57
199.93
205.95
206.29
199.54
185.94
167.15
145.37
122.11
97.67
71.52
43.23
13.42
-15.91
-42.09
-62.97
-77.97
-88.48
-97.25
-107.03
-119.32
-133.80
-148.64
-161.80
-172.30
-180.78
-189.20
-199.63
-212.71
-226.83
-238.89
-246.07
-247.64
-245.31
-241.91
-239.11
-236.00
-229.51
-216.54
-196.35
-171.53
-146.78
-126.26
-111.37
-100.25
-89.24
-75.35
-57.91
-38.58
-19.97
-3.88
9.47
21.15
32.68
45.09
58.33
71.40
82.72
90.60
93.98
92.96
88.67
82.79
76.95
72.03
68.03
64.29
60.12
55.24
49.97
44.86
40.16
35.45
29.72
22.07
12.22
0.83
-10.79
-21.44
-30.54
-38.24
-45.13
-51.68
-57.95
-63.54
-67.65
-69.44
-68.17
-63.06
-53.30
-38.50
-18.99
4.08
28.67
52.29
72.73
88.52
99.12
105.01
107.25
107.28
106.56
106.44
108.02
111.85
117.73
124.64
130.93
134.80
135.05
131.41
124.58
115.67
105.59
94.62
82.55
69.06
54.28
38.92
23.97
10.18
-2.31
-13.88
-25.01
-35.72
-45.45
-53.23
-58.21
-60.20
-59.87
-58.55
-57.75
-58.75
-62.32
-68.67
-77.58
-88.38
-100.02
-111.09
-119.97
-125.17
-125.73
-121.43
-112.85
-101.07
-87.39
-73.01
-58.99
-46.10
-34.96
-26.01
-19.54
-15.77
-14.76
-16.48
-20.54
-26.22
-32.48
-38.16
-42.27
-44.25
-43.99
-41.72
-37.93
-33.21
-28.23
-23.68
-20.27
-18.51
-18.50
-19.83
-21.62
-22.84
-22.61
-20.48
-16.57
-11.42
-5.74
-0.27
4.48
8.20
10.76
12.12
12.34
11.53
9.94
7.94
5.93
4.20
2.71
1.10
-1.22
-4.68
-9.30
-14.56
-19.63
-23.74
-26.49
-27.93
-28.29
-27.60
-25.53
-21.53
-15.26
-7.01
2.23
11.00
18.05
22.76
25.33
26.41
26.72
26.62
26.12
25.00
23.15
20.63
17.71
14.66
11.66
8.74
5.88
3.05
0.22
-2.74
-6.04
-9.95
-14.53
-19.55
-24.43
-28.39
-30.71
-30.96
-29.08
-25.35
-20.19
-14.10
-7.53
-0.99
4.96
9.80
13.13
14.92
15.51
15.49
15.52
15.94
16.80
17.88
18.86
19.55
19.84
19.74
19.26
18.32
16.80
14.66
11.97
9.00
6.19
4.01
2.88
3.00
4.29
6.37
8.65
10.48
11.37
11.09
9.73
7.54
4.83
1.88
-1.19
-4.34
-7.55
-10.77
-13.86
-16.58
-18.67
-19.94
-20.39
-20.18
-19.59
-18.88
-18.14
-17.25
-15.95
-13.96
-11.10
-7.36
-2.87
2.22
7.71
13.39
19.01
24.31
29.07
33.08
36.23
38.40
39.45
39.16
37.39
34.11
29.58
24.30
18.88
13.85
9.50
5.87
2.77
-0.08
-2.99
-6.22
-9.97
-14.28
-18.97
-23.61
-27.60
-30.32
-31.29
-30.28
-27.41
-23.11
-17.94
-12.57
-7.58
-3.44
-0.45
1.26
1.71
1.04
-0.46
-2.39
-4.32
-5.84
-6.68
-6.86
-6.56
-6.09
-5.71
-5.55
-5.62
-5.95
-6.64
-7.84
-9.69
-12.08
-14.68
-17.03
-18.66
-19.25
-18.63
-16.72
-13.50
-9.05
-3.74
1.79
6.66
10.05
11.51
11.21
9.82
8.21
7.07
6.72
7.13
8.14
9.59
11.33
13.16
14.72
15.54
15.22
13.60
10.99
8.09
5.85
5.17
6.63
10.27
15.70
22.24
29.11
35.75
41.78
47.00
51.14
53.82
54.43
52.39
47.39
39.63
29.87
19.31
9.36
1.21
-4.42
-7.36
-7.91
-6.71
-4.49
-2.01
-0.03
0.76
-0.17
-2.90
-7.02
-11.69
-16.00
-19.34
-21.62
-23.25
-24.77
-26.43
-28.05
-29.16
-29.34
-28.53
-27.17
-25.88
-25.16
-25.13
-25.52
-25.88
-25.87
-25.45
-24.77
-24.09
-23.59
-23.25
-22.86
-22.17
-20.94
-19.05
-16.51
-13.51
-10.42
-7.75
-6.03
-5.56
-6.31
-7.88
-9.60
-10.78
-10.89
-9.66
-7.09
-3.46
0.77
5.06
8.81
11.54
12.91
12.79
11.28
8.70
5.48
2.09
-1.02
-3.55
-5.34
-6.28
-6.31
-5.37
-3.44
-0.61
2.82
6.35
9.41
11.55
12.60
12.70
12.14
11.21
10.12
8.93
7.66
6.34
5.01
3.70
2.39
0.97
-0.70
-2.69
-5.05
-7.73
-10.60
-13.53
-16.29
-18.65
-20.34
-21.15
-20.95
-19.68
-17.50
-14.57
-11.08
-7.19
-3.05
1.27
5.59
9.59
12.82
14.87
15.46
14.61
12.87
11.12
10.27
10.95
13.26
16.71
20.54
24.02
26.52
27.65
27.31
25.37
21.74
16.37
9.37
1.19
-7.38
-15.45
-22.14
-26.83
-29.18
-29.20
-27.03
-22.99
-17.67
-11.70
-5.84
-0.82
2.98
5.68
7.84
10.15
13.00
16.14
18.90
20.50
20.50
19.00
16.58
14.02
11.81
9.95
8.05
5.78
3.15
0.72
-0.63
-0.22
2.05
5.61
9.50
12.65
14.46
14.78
13.87
12.19
10.13
7.73
4.89
1.44
-2.54
-6.61
-10.07
-12.00
-11.77
-9.30
-5.13
-0.16
4.51
8.08
10.19
10.85
10.39
9.27
8.01
7.13
7.03
7.88
9.58
11.83
14.29
16.73
19.07
21.20
22.91
23.80
23.37
21.16
17.03
11.25
4.58
-1.99
-7.48
-11.31
-13.51
-14.57
-15.28
-16.26
-17.80
-19.86
-22.20
-24.61
-26.98
-29.22
-31.15
-32.49
-32.89
-32.11
-30.16
-27.19
-23.39
-18.93
-13.95
-8.66
-3.44
1.27
5.04
7.67
9.23
9.94
10.02
9.52
8.39
6.58
4.22
1.64
-0.81
-2.90
-4.61
-6.22
-8.11
-10.54
-13.51
-16.63
-19.25
-20.64
-20.22
-17.83
-13.74
-8.47
-2.68
3.00
8.11
12.40
15.82
18.55
20.92
23.26
25.81
28.58
31.37
33.90
35.92
37.19
37.57
36.84
34.77
31.18
26.12
19.94
13.35
7.21
2.36
-0.59
-1.45
-0.47
1.74
4.35
6.70
8.37
9.22
9.43
9.27
8.95
8.64
8.43
8.34
8.27
7.89
6.68
4.06
-0.31
-6.28
-13.05
-19.50
-24.59
-27.76
-29.06
-28.95
-28.04
-26.80
-25.57
-24.53
-23.89
-23.75
-23.93
-23.88
-22.79
-19.88
-14.88
-8.10
-0.43
7.21
14.14
20.14
25.18
29.17
31.79
32.62
31.46
28.57
24.64
20.66
17.48
15.61
15.25
16.35
18.86
22.68
27.48
32.72
37.66
41.45
43.52
43.82
42.64
40.54
38.07
35.34
31.82
26.73
19.34
9.43
-2.21
-13.94
-23.90
-30.59
-33.64
-34.02
-33.29
-32.61
-32.42
-32.27
-31.32
-28.97
-25.07
-19.89
-13.86
-7.48
-1.46
3.29
5.59
4.48
-0.36
-8.30
-17.80
-26.89
-33.89
-37.91
-38.79
-36.88
-32.90
-27.63
-21.84
-16.25
-11.30
-7.19
-4.01
-1.70
0.05
1.43
2.50
3.32
3.81
3.83
3.33
2.27
0.58
-1.83
-5.06
-9.18
-14.13
-19.65
-25.25
-30.31
-34.23
-36.55
-36.96
-35.40
-32.03
-27.11
-21.17
-14.88
-8.98
-4.08
-0.56
1.56
2.47
2.61
2.45
2.40
2.76
3.56
4.62
5.63
6.18
5.98
5.06
3.64
2.08
0.55
-1.10
-3.18
-5.82
-8.76
-11.21
-12.11
-10.74
-6.97
-1.42
4.78
10.48
15.01
18.31
20.74
22.87
24.91
26.62
27.60
27.53
26.36
24.16
21.02
16.74
11.03
3.68
-5.03
-14.37
-23.37
-31.28
-37.85
-43.13
-47.07
-49.19
-48.66
-44.81
-37.66
-28.14
-17.77
-8.06
0.13
6.72
12.25
17.33
22.39
27.38
31.76
34.87
36.16
35.39
32.80
28.91
24.16
18.79
12.75
6.03
-1.05
-7.67
-12.82
-15.88
-17.00
-17.02
-16.94
-17.21
-17.32
-16.06
-12.36
-6.13
1.79
10.05
17.61
24.42
31.13
38.30
45.73
52.29
56.41
57.09
54.47
49.85
44.84
40.32
35.69
29.15
18.75
3.59
-15.44
-35.71
-54.02
-67.93
-76.67
-81.16
-83.31
-84.42
-84.37
-81.66
-74.25
-60.83
-41.92
-19.88
2.07
20.81
34.36
42.24
45.01
43.61
38.74
30.82
20.21
7.79
-5.04
-16.69
-25.86
-31.94
-35.32
-36.89
-37.36
-36.46
-32.81
-24.59
-10.77
7.76
27.99
45.75
57.18
60.43
56.27
47.44
37.25
28.20
21.23
16.13
12.38
9.87
8.98
10.18
13.27
17.22
20.48
21.45
19.30
14.27
7.77
1.86
-1.39
-0.53
4.73
13.47
23.87
33.92
41.97
47.14
49.32
48.74
45.75
40.55
33.23
24.04
13.79
3.71
-4.78
-10.66
-13.81
-15.15
-16.33
-18.99
-24.07
-31.34
-39.69
-47.54
-53.47
-56.72
-57.19
-55.27
-51.44
-46.24
-40.21
-33.93
-28.06
-23.32
-20.25
-18.96
-18.92
-19.00
-17.86
-14.36
-8.07
0.64
10.70
20.81
29.89
37.33
42.92
46.60
48.24
47.61
44.50
38.99
31.53
22.98
14.34
6.50
-0.03
-5.15
-9.10
-12.25
-14.91
-17.27
-19.45
-21.58
-23.84
-26.38
-29.17
-31.89
-33.99
-34.85
-34.12
-31.77
-28.14
-23.71
-18.88
-13.88
-8.75
-3.54
1.56
6.18
9.86
12.28
13.36
13.32
12.58
11.62
10.77
10.21
9.92
9.86
9.99
10.35
11.02
11.93
12.81
13.26
12.85
11.39
9.08
6.53
4.56
3.90
4.87
7.31
10.59
13.88
16.44
17.80
17.86
16.79
14.97
12.76
10.50
8.48
6.95
6.21
6.48
7.82
9.98
12.44
14.54
15.77
15.92
15.13
13.72
11.96
9.90
7.47
4.67
1.74
-0.70
-1.88
-1.22
1.48
5.82
11.01
16.00
19.85
21.86
21.76
19.63
15.81
10.82
5.18
-0.61
-6.08
-10.86
-14.64
-17.23
-18.63
-19.00
-18.63
-17.79
-16.68
-15.35
-13.84
-12.29
-11.03
-10.52
-11.12
-12.90
-15.43
-17.94
-19.55
-19.62
-17.90
-14.62
-10.27
-5.35
-0.24
4.82
9.64
13.99
17.54
19.97
21.11
21.01
19.96
18.37
16.65
15.17
14.12
13.55
13.35
13.32
13.28
13.12
12.85
12.51
12.02
11.18
9.72
7.53
4.85
2.30
0.66
0.36
1.25
2.58
3.26
2.53
0.29
-2.87
-5.96
-8.12
-8.93
-8.43
-7.01
-5.07
-2.84
-0.44
2.03
4.45
6.62
8.41
9.79
10.80
11.48
11.79
11.54
10.49
8.50
5.52
1.67
-2.84
-7.72
-12.65
-17.21
-20.98
-23.57
-24.66
-24.11
-21.93
-18.32
-13.65
-8.37
-3.06
1.72
5.52
8.06
9.23
9.15
8.02
6.14
3.79
1.21
-1.48
-4.38
-7.69
-11.73
-16.72
-22.78
-29.81
-37.43
-44.99
-51.57
-56.11
-57.58
-55.33
-49.21
-39.73
-27.91
-15.00
-2.22
9.51
19.58
27.67
33.67
37.55
39.44
39.60
38.42
36.30
33.58
30.43
26.85
22.79
18.21
13.23
8.04
2.87
-2.16
-7.06
-11.96
-16.94
-21.94
-26.70
-30.80
-33.76
-35.17
-34.80
-32.67
-29.09
-24.61
-19.80
-15.15
-10.94
-7.17
-3.66
-0.17
3.49
7.40
11.49
15.55
19.33
22.49
24.75
25.85
25.66
24.08
21.16
17.06
12.02
6.47
0.86
-4.40
-9.03
-12.93
-16.15
-18.74
-20.59
-21.36
-20.68
-18.25
-14.16
-8.88
-3.19
2.10
6.39
9.42
11.23
12.09
12.25
11.89
11.13
10.06
8.95
8.14
7.94
8.44
9.41
10.35
10.74
10.30
9.00
7.12
4.96
2.59
-0.19
-3.66
-7.92
-12.54
-16.69
-19.34
-19.72
-17.63
-13.45
-7.96
-2.03
3.62
8.53
12.50
15.41
17.17
17.74
17.10
15.43
13.08
10.51
8.23
6.65
6.01
6.29
7.22
8.37
9.31
9.64
9.17
7.82
5.60
2.64
-0.80
-4.25
-7.07
-8.61
-8.41
-6.41
-2.97
1.22
5.41
8.97
11.51
12.88
13.09
12.29
10.70
8.58
6.14
3.46
0.51
-2.72
-6.11
-9.34
-11.96
-13.61
-14.17
-13.79
-12.80
-11.56
-10.34
-9.33
-8.67
-8.47
-8.69
-9.06
-9.09
-8.23
-6.07
-2.60
1.91
7.04
12.54
18.43
24.89
32.08
39.76
47.24
53.36
56.79
56.28
51.05
41.18
27.79
12.88
-1.13
-12.14
-18.96
-21.63
-21.14
-18.88
-16.03
-13.30
-10.97
-9.17
-8.13
-8.06
-9.04
-10.75
-12.50
-13.45
-12.99
-10.90
-7.38
-2.95
1.93
6.91
11.86
16.67
21.27
25.30
28.36
30.15
30.58
29.93
28.70
27.39
26.34
25.63
25.11
24.56
23.66
22.00
19.14
14.58
7.98
-0.78
-11.46
-23.53
-36.25
-48.73
-59.96
-68.85
-74.46
-76.27
-74.37
-69.48
-62.70
-55.10
-47.47
-40.23
-33.56
-27.62
-22.68
-18.94
-16.40
-14.78
-13.53
-12.16
-10.43
-8.45
-6.61
-5.24
-4.45
-4.11
-3.98
-3.90
-3.98
-4.51
-5.67
-7.36
-9.07
-10.04
-9.58
-7.39
-3.79
0.43
4.33
7.13
8.52
8.72
8.35
8.11
8.55
9.89
12.00
14.51
17.03
19.30
21.26
22.87
24.08
24.81
24.96
24.65
24.08
23.43
22.63
21.27
18.72
14.55
8.96
2.82
-2.48
-5.72
-6.25
-4.27
-0.52
4.03
8.67
13.00
16.73
19.58
21.22
21.35
19.96
17.39
14.22
11.00
7.97
5.00
1.76
-2.05
-6.44
-11.09
-15.52
-19.35
-22.43
-24.87
-26.94
-28.88
-30.80
-32.59
-34.00
-34.66
-34.14
-32.06
-28.22
-22.67
-15.78
-8.14
-0.44
6.71
12.93
17.98
21.80
24.39
25.78
26.10
25.54
24.37
22.85
21.16
19.40
17.55
15.59
13.48
11.25
8.88
6.34
3.58
0.60
-2.55
-5.74
-8.85
-11.77
-14.36
-16.39
-17.54
-17.48
-16.05
-13.45
-10.22
-7.01
-4.33
-2.28
-0.68
0.80
2.37
3.94
5.23
5.90
5.82
5.05
3.79
2.24
0.53
-1.28
-3.09
-4.74
-6.05
-6.86
-7.18
-7.22
-7.28
-7.66
-8.40
-9.25
-9.72
-9.30
-7.69
-4.94
-1.39
2.46
6.17
9.38
11.85
13.38
13.76
12.87
10.72
7.60
3.93
0.19
-3.29
-6.35
-9.07
-11.55
-13.88
-16.13
-18.28
-20.27
-21.99
-23.25
-23.88
-23.80
-22.98
-21.48
-19.41
-16.75
-13.39
-9.16
-4.01
1.91
8.22
14.41
20.05
24.86
28.78
31.78
33.79
34.67
34.32
32.79
30.31
27.32
24.24
21.34
18.69
16.09
13.29
10.01
6.15
1.72
-3.06
-7.90
-12.54
-16.84
-20.85
-24.61
-28.07
-30.92
-32.65
-32.74
-30.92
-27.33
-22.47
-17.02
-11.65
-6.79
-2.62
0.82
3.60
5.79
7.49
8.75
9.51
9.69
9.20
8.07
6.51
4.84
3.37
2.33
1.82
1.84
2.35
3.24
4.25
4.92
4.69
3.14
0.28
-3.29
-6.60
-8.62
-8.74
-6.98
-3.82
0.07
4.16
8.19
12.07
15.65
18.56
20.31
20.48
19.04
16.44
13.41
10.81
9.27
9.01
9.90
11.49
13.23
14.59
15.15
14.66
13.02
10.30
6.68
2.38
-2.28
-6.95
-11.24
-14.78
-17.32
-18.70
-18.90
-17.88
-15.63
-12.20
-7.89
-3.21
1.05
4.12
5.35
4.49
1.75
-2.29
-6.65
-10.17
-11.76
-10.77
-7.37
-2.73
1.27
2.76
0.58
-5.16
-13.11
-21.23
-27.54
-30.70
-30.20
-26.32
-19.83
-11.78
-3.20
5.02
12.39
18.76
24.36
29.50
34.22
38.14
40.59
40.77
38.04
32.14
23.28
12.26
0.59
-9.67
-16.27
-17.40
-12.35
-1.86
12.05
26.78
39.89
49.72
55.55
57.50
56.23
52.42
46.51
38.50
28.07
14.86
-0.83
-17.60
-32.89
-43.86
-48.64
-47.25
-41.56
-34.04
-26.23
-17.88
-7.45
6.43
23.43
41.30
56.79
67.32
72.08
72.01
68.76
63.63
57.16
49.62
41.81
35.21
31.42
31.01
32.99
35.09
34.92
31.22
24.42
16.16
8.11
0.92
-6.08
-14.26
-24.67
-37.27
-50.77
-63.31
-73.32
-80.02
-83.33
-83.46
-80.48
-74.34
-65.25
-54.02
-42.08
-31.06
-22.16
-15.70
-11.18
-7.62
-4.02
0.27
5.57
11.85
18.83
25.97
32.48
37.63
41.00
42.86
44.01
45.36
47.30
49.41
50.69
50.19
47.78
44.37
41.50
40.44
41.34
43.04
43.71
41.86
37.24
30.90
24.54
19.46
15.90
12.90
8.96
2.81
-5.94
-16.67
-28.24
-39.55
-50.09
-60.14
-70.47
-81.86
-94.63
-108.49
-122.70
-136.38
-148.86
-159.89
-169.55
-178.14
-185.90
-192.77
-198.35
-201.81
-202.05
-198.08
-189.37
-176.26
-159.84
-141.61
-122.84
-104.21
-85.80
-67.54
-49.79
-33.52
-20.02
-10.17
-3.95
-0.29
2.44
5.65
9.91
14.76
19.08
21.69
21.83
19.51
15.33
10.15
4.78
-0.23
-4.56
-7.99
-10.15
-10.65
-9.21
-5.97
-1.59
2.94
6.69
9.16
10.43
10.90
11.00
10.86
10.43
9.72
9.05
9.03
10.29
13.10
17.15
21.68
25.91
29.35
32.02
34.23
36.21
37.83
38.57
37.82
35.19
30.88
25.73
20.96
17.85
17.31
19.62
24.40
30.84
38.06
45.37
52.42
59.12
65.45
71.38
76.73
81.25
84.67
86.80
87.51
86.87
85.15
82.82
80.46
78.46
76.85
75.16
72.52
68.09
61.39
52.47
41.86
30.21
18.02
5.61
-6.81
-18.82
-29.73
-38.69
-44.95
-48.20
-48.54
-46.37
-42.06
-35.83
-27.70
-17.75
-6.39
5.59
17.02
26.73
33.84
38.04
39.66
39.48
38.45
37.37
36.71
36.54
36.64
36.69
36.46
35.93
35.24
34.60
34.20
34.12
34.31
34.62
34.80
34.56
33.63
31.84
29.28
26.32
23.55
21.59
20.85
21.34
22.67
24.22
25.35
25.69
25.21
24.14
22.78
21.36
19.95
18.53
17.07
15.65
14.42
13.51
12.90
12.42
11.79
10.79
9.39
7.79
6.21
4.76
3.35
1.76
-0.14
-2.27
-4.32
-5.86
-6.65
-6.67
-6.17
-5.47
-4.82
-4.28
-3.82
-3.44
-3.16
-3.04
-3.07
-3.07
-2.86
-2.34
-1.63
-1.00
-0.69
-0.72
-0.89
-0.95
-0.74
-0.30
0.20
0.69
1.28
2.17
3.49
5.10
6.58
7.55
7.81
7.60
7.36
7.48
8.06
8.87
9.49
9.52
8.79
7.33
5.30
2.94
0.52
-1.72
-3.53
-4.81
-5.54
-5.86
-5.91
-5.81
-5.62
-5.37
-5.14
-5.10
-5.43
-6.27
-7.59
-9.24
-10.99
-12.57
-13.74
-14.35
-14.40
-14.04
-13.57
-13.37
-13.68
-14.52
-15.67
-16.80
-17.60
-17.87
-17.52
-16.50
-14.70
-12.12
-8.88
-5.35
-2.01
0.72
2.70
4.08
5.14
6.07
6.84
7.29
7.31
6.97
6.50
6.11
5.85
5.60
5.17
4.53
3.78
3.10
2.55
1.94
0.93
-0.75
-3.03
-5.54
-7.67
-8.87
-8.86
-7.76
-6.01
-4.21
-2.94
-2.58
-3.17
-4.37
-5.57
-6.13
-5.60
-3.97
-1.66
0.70
2.56
3.64
4.06
4.10
3.94
3.63
3.04
2.04
0.66
-0.83
-2.08
-2.87
-3.28
-3.65
-4.39
-5.65
-7.24
-8.63
-9.26
-8.77
-7.22
-4.99
-2.61
-0.56
0.92
1.79
2.21
2.45
2.82
3.67
5.27
7.76
11.16
15.39
20.35
25.99
32.31
39.28
46.78
54.52
62.00
68.63
73.81
77.08
78.26
77.52
75.49
73.11
71.36
71.07
72.63
75.99
80.72
86.30
92.19
97.96
103.38
108.39
113.15
118.03
123.34
128.98
134.12
137.26
136.82
132.07
123.70
113.74
104.72
98.31
94.58
92.05
88.78
83.84
78.11
73.99
74.10
79.68
89.72
101.20
110.32
113.96
110.69
100.76
85.46
66.21
43.92
18.90
-8.66
-38.18
-68.42
-97.70
-124.40
-147.66
-167.73
-185.95
-204.45
-225.56
-251.30
-282.72
-319.37
-358.93
-397.25
-429.06
-449.16
-453.92
-442.33
-416.29
-379.82
-337.57
-293.41
-249.64
-207.15
-166.24
-127.40
-91.64
-60.02
-32.99
-9.94
10.64
30.34
49.97
68.95
85.47
97.30
102.87
102.22
97.33
91.75
89.53
94.04
106.84
127.36
153.01
179.86
203.35
219.09
223.65
215.32
194.77
165.10
131.27
98.57
71.14
50.82
37.04
27.79
20.80
14.64
8.79
3.16
-2.62
-9.41
-18.19
-29.32
-41.87
-53.89
-63.33
-69.41
-73.54
-79.25
-90.93
-112.12
-143.94
-184.20
-227.79
-267.71
-296.75
-309.21
-302.25
-276.69
-237.02
-190.30
-144.28
-105.21
-76.28
-57.44
-46.64
-41.52
-40.54
-43.04
-48.46
-55.39
-61.49
-64.15
-61.63
-54.01
-43.15
-31.85
-22.69
-17.08
-14.87
-14.56
-13.70
-9.67
-0.44
14.52
33.61
53.12
68.30
75.12
71.88
60.02
43.35
26.33
12.09
1.37
-7.29
-16.13
-26.59
-38.50
-50.07
-58.99
-63.49
-63.18
-58.91
-52.18
-44.33
-35.90
-26.81
-16.73
-5.78
5.24
14.96
22.02
25.65
25.97
23.93
20.76
17.51
14.61
11.99
9.26
6.08
2.41
-1.54
-5.44
-9.14
-12.76
-16.78
-21.82
-28.29
-36.04
-44.18
-51.14
-55.05
-54.39
-48.55
-38.07
-24.47
-9.62
4.89
18.24
30.34
41.42
51.53
60.28
66.96
70.96
72.23
71.39
69.52
67.68
66.46
65.74
64.81
62.69
58.55
52.03
43.29
33.06
22.27
11.80
2.17
-6.52
-14.51
-21.99
-28.75
-33.97
-36.42
-34.96
-29.03
-18.94
-5.77
9.07
24.23
38.76
52.00
63.46
72.66
79.13
82.55
82.99
80.91
77.06
72.25
67.17
62.34
58.02
54.26
51.00
48.06
45.30
42.63
40.03
37.40
34.50
30.95
26.41
20.85
14.69
8.87
4.47
2.42
3.20
6.78
12.78
20.67
29.87
39.80
49.74
58.89
66.51
72.13
75.74
77.74
78.72
79.29
79.81
80.43
81.13
81.84
82.53
83.22
84.06
85.32
87.33
90.39
94.52
99.19
103.33
105.59
104.85
100.82
94.19
86.38
78.74
71.89
65.35
58.00
48.85
37.91
26.30
15.70
7.47
1.98
-1.39
-3.62
-5.40
-6.83
-7.66
-7.85
-7.85
-8.42
-10.14
-12.94
-16.18
-19.02
-21.15
-22.97
-25.43
-29.55
-35.97
-44.83
-56.00
-69.23
-84.05
-99.57
-114.31
-126.27
-133.62
-135.32
-131.63
-123.96
-114.35
-104.60
-95.86
-88.56
-82.56
-77.45
-72.64
-67.36
-60.77
-52.34
-42.14
-31.10
-20.68
-12.12
-5.60
0.14
7.33
18.10
33.24
51.61
70.42
86.37
96.99
101.44
100.59
96.30
90.51
84.64
79.29
74.50
70.06
65.74
61.40
57.05
52.87
49.19
46.42
44.78
44.21
44.23
44.14
43.20
40.93
37.17
32.03
25.84
19.08
12.33
6.20
1.30
-1.93
-3.20
-2.47
0.07
4.04
8.79
13.48
17.23
19.31
19.40
17.63
14.46
10.43
5.95
1.25
-3.42
-7.74
-11.16
-13.15
-13.31
-11.66
-8.53
-4.59
-0.58
2.73
4.65
4.73
2.89
-0.38
-4.16
-7.28
-8.85
-8.59
-6.93
-4.81
-3.18
-2.62
-3.23
-4.63
-6.31
-7.78
-8.77
-9.22
-9.33
-9.45
-9.92
-10.90
-12.23
-13.49
-14.12
-13.75
-12.40
-10.51
-8.70
-7.50
-7.18
-7.69
-8.78
-10.16
-11.42
-12.06
-11.53
-9.54
-6.29
-2.61
0.31
1.37
0.11
-3.17
-7.57
-12.13
-16.09
-19.04
-20.76
-21.12
-20.06
-17.83
-15.06
-12.68
-11.54
-12.06
-13.98
-16.52
-18.79
-20.06
-19.98
-18.51
-15.81
-12.12
-7.90
-3.71
-0.17
2.21
3.26
3.16
2.37
1.39
0.65
0.38
0.70
1.63
3.21
5.37
7.91
10.40
12.29
13.07
12.54
10.90
8.76
6.95
6.18
6.80
8.62
10.97
12.97
13.88
13.58
12.56
11.88
12.54
14.93
18.43
21.60
22.77
20.84
15.76
8.56
0.89
-5.59
-9.52
-9.95
-6.40
0.91
10.71
20.48
26.87
26.75
18.47
2.62
-18.32
-41.29
-64.25
-87.11
-111.25
-138.03
-167.08
-195.40
-218.01
-229.93
-228.34
-213.93
-190.47
-163.12
-136.23
-112.04
-90.59
-70.95
-52.53
-35.83
-22.05
-12.06
-5.59
-1.03
3.83
10.70
19.97
30.63
40.78
48.45
52.42
52.51
49.62
45.23
40.87
37.47
35.17
33.44
31.63
29.50
27.51
26.52
27.28
29.77
33.08
35.76
36.47
34.57
30.21
24.11
17.04
9.54
1.94
-5.41
-11.93
-16.84
-19.45
-19.58
-17.63
-14.54
-11.28
-8.53
-6.53
-5.13
-4.06
-3.17
-2.37
-1.53
-0.33
1.79
5.39
10.78
17.77
25.65
33.39
40.00
44.83
47.76
49.10
49.38
49.09
48.47
47.53
46.21
44.49
42.51
40.54
38.95
38.04
37.96
38.70
40.03
41.54
42.63
42.60
40.77
36.65
30.12
21.52
11.64
1.57
-7.59
-15.02
-20.41
-23.94
-26.08
-27.25
-27.62
-27.03
-25.20
-21.92
-17.23
-11.45
-5.07
1.39
7.46
12.74
16.91
19.76
21.29
21.78
21.67
21.39
21.18
20.99
20.64
19.87
18.60
16.83
14.78
12.79
11.36
11.07
12.45
15.81
21.07
27.66
34.69
41.20
46.44
50.11
52.35
53.57
54.25
54.72
55.06
55.06
54.40
52.74
49.92
46.12
41.72
37.18
32.77
28.50
24.15
19.44
14.13
8.05
0.99
-7.32
-17.09
-28.14
-39.65
-50.14
-57.83
-61.23
-59.66
-53.45
-43.66
-31.63
-18.56
-5.36
7.23
18.50
27.76
34.57
38.94
41.41
42.88
44.21
45.87
47.72
49.13
49.23
47.29
43.00
36.54
28.51
19.73
10.82
2.03
-6.91
-16.53
-27.26
-38.92
-50.62
-60.88
-68.24
-71.86
-71.86
-69.22
-65.21
-60.90
-56.76
-52.75
-48.67
-44.52
-40.59
-37.35
-35.12
-33.84
-33.06
-32.17
-30.71
-28.51
-25.78
-22.95
-20.42
-18.42
-17.01
-16.15
-15.97
-16.71
-18.72
-22.25
-27.27
-33.36
-39.75
-45.44
-49.40
-50.70
-48.74
-43.39
-35.06
-24.72
-13.67
-3.29
5.29
11.38
14.74
15.44
13.72
9.92
4.53
-1.77
-8.06
-13.45
-17.27
-19.33
-19.94
-19.75
-19.33
-18.95
-18.47
-17.56
-15.97
-13.80
-11.40
-9.19
-7.24
-5.16
-2.23
2.32
8.83
16.95
25.80
34.21
41.25
46.66
50.88
54.75
59.13
64.39
70.28
76.16
81.27
85.11
87.43
88.23
87.50
85.23
81.49
76.47
70.53
64.02
56.99
49.11
39.62
27.60
12.22
-7.09
-30.41
-57.22
-86.27
-115.55
-142.47
-164.24
-178.51
-183.93
-180.55
-169.74
-153.72
-134.97
-115.55
-96.77
-79.16
-62.71
-47.25
-32.67
-18.96
-6.13
6.01
17.85
29.88
42.42
55.31
67.89
79.16
88.15
94.26
97.46
98.25
97.40
95.67
93.76
92.32
91.99
93.34
96.62
101.38
106.40
109.87
109.95
105.45
96.13
82.73
66.71
49.91
34.30
21.73
13.61
10.34
10.92
12.89
12.95
8.10
-3.18
-20.31
-40.85
-61.50
-79.32
-92.64
-101.43
-106.89
-110.82
-114.81
-119.72
-125.37
-130.63
-133.74
-132.88
-126.76
-115.21
-99.32
-81.23
-63.51
-48.28
-36.65
-28.43
-22.48
-17.41
-12.33
-7.21
-2.84
-0.28
-0.19
-2.51
-6.51
-11.19
-15.78
-19.94
-23.66
-26.96
-29.70
-31.61
-32.56
-32.67
-32.36
-32.10
-32.23
-32.81
-33.55
-33.96
-33.42
-31.39
-27.53
-21.94
-15.31
-8.69
-3.08
1.10
4.35
7.83
12.74
19.55
27.61
35.39
41.19
43.89
43.36
40.32
36.02
31.80
28.88
28.22
30.38
35.28
42.07
49.33
55.47
59.33
60.56
59.57
57.22
54.29
51.30
48.44
45.75
43.19
40.71
38.12
35.18
31.77
28.08
24.63
22.03
20.65
20.34
20.53
20.58
20.07
18.93
17.32
15.35
12.98
10.17
7.02
3.89
1.21
-0.98
-3.25
-6.74
-12.52
-20.94
-31.11
-41.05
-48.48
-51.72
-50.48
-45.83
-39.60
-33.50
-28.45
-24.44
-20.86
-17.13
-13.03
-8.80
-4.81
-1.31
1.70
4.35
6.67
8.41
9.16
8.49
6.21
2.50
-2.18
-7.26
-12.19
-16.58
-20.20
-22.95
-24.75
-25.59
-25.41
-24.22
-22.10
-19.27
-16.02
-12.67
-9.40
-6.28
-3.26
-0.26
2.73
5.61
8.25
10.45
12.00
12.67
12.19
10.35
7.07
2.50
-2.94
-8.68
-14.11
-18.80
-22.53
-25.37
-27.54
-29.36
-31.01
-32.45
-33.33
-33.08
-31.24
-27.57
-22.33
-16.15
-9.82
-3.98
1.13
5.71
10.18
14.90
19.90
24.86
29.22
32.48
34.40
35.04
34.71
33.76
32.42
30.75
28.63
25.94
22.62
18.73
14.40
9.67
4.60
-0.70
-5.95
-10.54
-13.69
-14.64
-13.03
-9.03
-3.35
3.02
9.13
14.29
18.17
20.68
21.90
21.98
21.19
19.90
18.54
17.51
16.97
16.83
16.74
16.26
15.09
13.18
10.79
8.32
6.17
4.51
3.22
1.91
0.13
-2.44
-5.81
-9.66
-13.38
-16.30
-17.89
-17.96
-16.63
-14.24
-11.11
-7.43
-3.21
1.52
6.58
11.55
15.95
19.39
21.80
23.34
24.26
24.72
24.74
24.35
23.64
22.85
22.17
21.63
20.98
19.82
17.82
14.90
11.24
7.18
3.02
-1.01
-4.68
-7.67
-9.48
-9.58
-7.58
-3.41
2.58
9.73
17.11
23.68
28.38
30.33
28.92
24.01
15.92
5.50
-6.06
-17.35
-27.01
-34.04
-38.08
-39.52
-39.35
-38.76
-38.67
-39.37
-40.44
-41.09
-40.52
-38.39
-34.97
-30.93
-27.01
-23.63
-20.67
-17.62
-13.85
-8.96
-3.05
3.34
9.45
14.62
18.48
20.97
22.14
21.99
20.53
17.88
14.41
10.69
7.31
4.66
2.89
1.96
1.74
2.22
3.28
4.67
5.96
6.63
6.29
4.85
2.41
-0.80
-4.62
-8.87
-13.28
-17.37
-20.51
-22.14
-22.02
-20.35
-17.67
-14.54
-11.40
-8.36
-5.34
-2.15
1.33
5.11
9.12
13.18
17.02
20.34
22.86
24.41
24.97
24.69
23.82
22.52
20.89
18.89
16.44
13.48
10.01
6.12
1.95
-2.29
-6.30
-9.79
-12.50
-14.31
-15.29
-15.59
-15.31
-14.43
-12.79
-10.19
-6.55
-2.05
2.90
7.78
12.12
15.62
18.17
19.84
20.80
21.27
21.51
21.69
21.78
21.51
20.42
18.06
14.23
9.10
3.25
-2.53
-7.46
-10.90
-12.51
-12.31
-10.66
-8.20
-5.71
-3.82
-2.79
-2.33
-1.80
-0.43
2.31
6.48
11.70
17.32
22.71
27.47
31.49
34.91
37.95
40.72
43.15
44.95
45.79
45.49
44.17
42.27
40.35
38.76
37.38
35.56
32.33
26.54
17.27
3.94
-13.43
-34.19
-56.90
-79.42
-99.12
-113.37
-120.13
-118.50
-108.95
-93.28
-74.11
-54.25
-35.99
-20.64
-8.41
1.37
9.68
17.21
23.97
29.37
32.71
33.81
33.37
32.91
34.08
37.88
44.10
51.41
57.93
61.97
62.46
59.01
51.59
40.43
25.95
9.02
-9.19
-27.60
-45.84
-64.50
-84.79
-107.40
-131.51
-154.15
-170.86
-177.23
-170.56
-150.97
-121.31
-86.08
-49.91
-16.53
11.70
33.44
47.98
55.02
54.87
48.83
39.26
29.27
21.83
18.91
21.00
27.09
35.23
43.31
49.61
53.22
54.07
52.66
49.80
46.12
41.96
37.36
32.29
27.18
22.93
20.87
22.21
27.54
36.37
46.94
56.38
61.15
57.95
44.79
22.02
-7.30
-37.98
-64.28
-81.81
-88.87
-86.45
-77.12
-63.39
-46.71
-27.57
-6.37
15.67
36.44
53.79
66.57
75.13
80.78
84.64
86.75
85.84
80.20
68.80
52.08
32.01
11.33
-7.35
-22.33
-32.98
-39.55
-42.89
-44.05
-44.13
-44.04
-44.25
-44.69
-44.86
-44.18
-42.43
-40.00
-37.78
-36.75
-37.59
-40.45
-44.92
-50.38
-56.17
-61.76
-66.62
-70.21
-71.86
-70.80
-66.34
-57.96
-45.56
-29.62
-11.19
8.11
26.48
42.29
54.46
62.73
67.52
69.75
70.48
70.68
71.03
71.82
72.74
72.97
71.37
66.87
58.82
47.21
32.56
15.69
-2.55
-21.28
-39.68
-56.95
-72.40
-85.69
-96.85
-106.14
-113.75
-119.40
-122.33
-121.50
-116.13
-106.15
-92.34
-76.06
-58.82
-41.78
-25.60
-10.50
3.49
16.34
27.85
37.66
45.34
50.37
52.32
51.04
46.72
40.05
32.13
24.21
17.44
12.59
9.88
8.96
9.03
9.08
8.16
5.70
1.66
-3.34
-8.21
-11.65
-12.59
-10.52
-5.63
1.34
9.35
17.42
24.86
31.32
36.66
40.71
43.32
44.31
43.70
41.82
39.17
36.19
33.00
29.30
24.57
18.37
10.67
1.93
-7.12
-15.71
-23.35
-29.89
-35.38
-39.88
-43.33
-45.53
-46.28
-45.42
-42.98
-39.01
-33.55
-26.65
-18.42
-9.24
0.19
8.87
15.75
20.05
21.49
20.40
17.48
13.64
9.70
6.20
3.36
1.17
-0.53
-1.86
-2.79
-3.18
-2.83
-1.65
0.21
2.38
4.31
5.48
5.55
4.46
2.43
-0.08
-2.55
-4.56
-5.80
-6.20
-5.77
-4.67
-3.04
-1.08
0.91
2.59
3.53
3.44
2.20
-0.01
-2.77
-5.67
-8.41
-10.86
-12.96
-14.60
-15.53
-15.48
-14.28
-12.02
-9.11
-6.22
-4.08
-3.28
-4.11
-6.51
-9.99
-13.80
-16.98
-18.62
-18.15
-15.51
-11.18
-6.09
-1.19
2.79
5.60
7.43
8.68
9.60
10.15
9.91
8.42
5.56
1.77
-1.93
-4.35
-4.63
-2.72
0.61
4.00
6.05
5.77
2.82
-2.50
-9.49
-17.17
-24.43
-30.07
-33.07
-32.87
-29.66
-24.41
-18.37
-12.39
-6.36
0.86
10.79
24.31
40.92
58.65
74.83
87.18
94.79
98.18
98.78
98.09
97.09
96.13
94.97
92.86
88.50
80.28
66.85
47.81
24.18
-1.74
-27.26
-50.34
-70.09
-86.68
-100.57
-111.85
-119.99
-124.25
-124.19
-120.07
-112.75
-103.47
-93.50
-84.02
-76.04
-70.25
-66.81
-65.44
-65.59
-66.67
-68.17
-69.46
-69.57
-67.14
-60.86
-50.18
-35.74
-19.32
-3.06
11.34
23.30
33.17
41.64
49.17
55.64
60.76
64.37
66.75
68.38
69.55
70.28
70.49
70.51
71.08
72.99
76.33
79.97
81.77
79.53
72.21
60.71
47.72
36.87
31.60
34.35
45.89
64.86
87.38
107.44
118.17
114.02
93.10
58.25
16.23
-24.73
-57.83
-79.64
-90.30
-92.22
-88.41
-81.30
-72.50
-63.14
-54.16
-46.24
-39.46
-33.25
-26.72
-19.11
-10.22
-0.45
9.42
18.58
26.46
32.76
37.37
40.35
41.93
42.49
42.50
42.43
42.54
42.81
42.89
42.33
40.72
37.95
34.20
29.87
25.35
20.94
16.85
13.25
10.44
8.79
8.68
10.24
13.17
16.77
20.07
22.18
22.66
21.73
20.16
18.97
18.95
20.30
22.58
24.94
26.55
26.86
25.75
23.32
19.70
14.97
9.34
3.37
-2.03
-5.87
-7.66
-7.73
-7.20
-7.25
-8.43
-10.24
-11.36
-10.38
-6.54
0.02
8.62
18.62
29.74
41.81
54.29
65.95
75.22
80.93
83.00
82.40
80.55
78.33
75.70
71.92
66.39
59.40
52.04
45.58
40.61
36.69
32.75
27.82
21.57
14.28
6.30
-2.38
-11.95
-22.29
-32.43
-40.53
-44.65
-43.62
-37.68
-28.32
-17.51
-6.93
2.46
10.20
15.98
19.36
19.89
17.39
12.18
5.09
-2.87
-10.90
-18.51
-25.61
-32.24
-38.46
-44.15
-49.09
-52.98
-55.67
-57.24
-58.05
-58.69
-59.72
-61.38
-63.43
-65.14
-65.55
-63.81
-59.46
-52.55
-43.58
-33.28
-22.40
-11.53
-1.07
8.70
17.51
24.95
30.49
33.59
33.96
31.75
27.64
22.69
18.06
14.70
13.14
13.35
14.82
16.71
18.07
18.06
16.11
12.00
5.90
-1.64
-9.77
-17.42
-23.57
-27.37
-28.47
-26.98
-23.42
-18.46
-12.63
-6.25
0.60
7.87
15.40
22.86
29.79
35.69
40.11
42.72
43.38
42.20
39.50
35.82
31.64
27.22
22.51
17.20
11.01
3.94
-3.72
-11.50
-19.02
-26.17
-33.08
-39.88
-46.46
-52.38
-56.98
-59.67
-60.19
-58.77
-55.91
-52.19
-47.98
-43.38
-38.31
-32.70
-26.65
-20.50
-14.71
-9.68
-5.65
-2.63
-0.41
1.28
2.78
4.31
6.08
8.13
10.33
12.33
13.52
13.05
10.14
4.20
-4.81
-16.22
-28.64
-40.22
-49.08
-53.94
-54.52
-51.57
-46.59
-41.16
-36.46
-32.94
-30.51
-28.88
-27.87
-27.54
-27.98
-29.15
-30.73
-32.19
-33.04
-32.97
-31.95
-30.08
-27.56
-24.60
-21.45
-18.34
-15.36
-12.35
-8.86
-4.35
1.52
8.61
16.34
23.94
30.92
37.39
44.07
51.86
61.38
72.50
84.32
95.41
104.34
109.90
111.31
108.17
100.52
89.08
75.33
61.54
50.14
42.90
40.01
39.82
39.28
34.99
24.40
6.77
-16.60
-42.76
-68.05
-89.15
-103.82
-111.26
-111.95
-107.15
-98.38
-87.05
-74.33
-61.14
-48.16
-35.63
-23.29
-10.47
3.55
18.91
34.78
49.41
60.78
67.33
68.65
65.52
59.63
52.90
46.85
42.15
38.56
35.13
30.81
24.95
17.64
9.73
2.41
-3.38
-7.29
-9.69
-11.40
-13.31
-16.08
-19.98
-24.85
-30.21
-35.24
-39.00
-40.58
-39.32
-35.06
-28.07
-19.00
-8.72
1.85
11.78
20.23
26.48
30.01
30.62
28.42
23.95
18.04
11.70
5.92
1.41
-1.57
-3.20
-3.99
-4.52
-5.29
-6.65
-8.82
-11.99
-16.27
-21.64
-27.74
-33.92
-39.18
-42.58
-43.36
-41.32
-36.80
-30.62
-23.76
-17.06
-11.04
-5.84
-1.45
2.15
4.92
6.83
7.86
8.13
7.68
6.44
4.22
0.81
-3.63
-8.55
-13.04
-16.18
-17.40
-16.66
-14.41
-11.41
-8.50
-6.43
-5.75
-6.59
-8.62
-11.01
-12.56
-12.15
-9.10
-3.40
4.33
13.01
21.53
28.91
34.50
37.96
39.28
38.82
37.26
35.42
34.13
33.88
34.73
36.19
37.37
37.21
34.75
29.37
20.94
9.98
-2.41
-14.63
-24.94
-31.88
-34.78
-33.92
-30.45
-25.97
-21.90
-19.00
-17.22
-15.83
-13.89
-10.55
-5.25
2.26
11.94
23.43
35.91
48.11
58.48
65.62
68.64
67.44
62.71
55.57
47.27
39.03
31.87
26.60
23.58
22.50
22.25
21.00
16.78
8.16
-5.14
-21.97
-40.16
-57.11
-70.58
-79.08
-81.99
-79.37
-71.77
-60.01
-45.35
-29.56
-14.97
-4.00
1.52
1.06
-4.28
-12.03
-19.35
-24.06
-25.29
-23.53
-20.17
-16.59
-13.65
-11.52
-9.95
-8.74
-7.91
-7.67
-8.09
-8.98
-9.90
-10.41
-10.46
-10.29
-10.34
-10.80
-11.47
-11.79
-11.12
-9.17
-6.07
-2.39
1.14
3.73
4.61
3.05
-1.47
-8.99
-18.72
-29.24
-38.86
-46.31
-51.30
-54.48
-56.98
-59.75
-63.07
-66.51
-69.39
-71.18
-71.70
-71.04
-69.22
-65.98
-60.88
-53.60
-44.19
-33.29
-21.94
-11.28
-2.20
4.80
9.60
12.35
13.39
13.23
12.50
11.89
11.87
12.42
12.98
12.60
10.40
6.07
0.03
-6.70
-13.06
-18.37
-22.68
-26.54
-30.58
-35.11
-39.97
-44.75
-49.00
-52.44
-54.87
-56.03
-55.50
-52.83
-47.82
-40.75
-32.40
-23.83
-15.94
-9.16
-3.33
2.07
7.59
13.42
19.31
24.69
28.95
31.75
33.02
32.91
31.64
29.33
26.08
22.10
17.76
13.56
9.81
6.58
3.56
0.31
-3.50
-7.82
-12.15
-15.68
-17.59
-17.38
-15.03
-11.05
-6.23
-1.35
3.15
7.21
11.08
15.01
19.03
22.90
26.22
28.72
30.39
31.43
32.11
32.54
32.66
32.28
31.25
29.51
27.08
23.94
20.06
15.50
10.47
5.48
1.19
-1.71
-2.73
-1.70
1.21
5.57
10.74
16.10
21.07
25.24
28.37
30.38
31.28
31.12
29.99
28.04
25.46
22.50
19.37
16.21
13.09
10.05
7.15
4.47
2.09
-0.05
-2.13
-4.41
-7.04
-9.98
-12.86
-15.15
-16.27
-15.82
-13.59
-9.64
-4.18
2.45
9.84
17.53
24.93
31.41
36.41
39.56
40.80
40.39
38.79
36.45
33.67
30.55
27.10
23.38
19.53
15.73
12.04
8.36
4.45
0.08
-4.79
-9.96
-15.08
-19.74
-23.52
-26.05
-26.94
-25.87
-22.71
-17.63
-11.21
-4.22
2.50
8.40
13.25
17.13
20.25
22.73
24.60
25.76
26.17
25.89
25.16
24.30
23.56
23.06
22.69
22.23
21.41
20.00
17.86
14.97
11.31
6.96
2.17
-2.60
-6.67
-9.25
-9.75
-7.96
-4.12
1.12
6.98
12.80
18.17
22.94
27.11
30.71
33.68
35.93
37.43
38.19
38.30
37.82
36.74
34.97
32.37
28.82
24.26
18.81
12.78
6.71
1.21
-3.22
-6.40
-8.50
-9.92
-11.02
-11.91
-12.49
-12.58
-12.17
-11.44
-10.58
-9.59
-8.16
-5.86
-2.44
1.88
6.49
10.61
13.69
15.60
16.63
17.24
17.80
18.45
19.11
19.67
20.00
20.06
19.80
19.11
17.81
15.63
12.33
7.72
1.82
-5.05
-12.33
-19.21
-24.86
-28.53
-29.82
-28.67
-25.40
-20.57
-14.86
-8.98
-3.63
0.60
3.25
4.24
3.88
2.87
2.01
1.83
2.40
3.37
4.26
4.87
5.40
6.32
8.01
10.44
13.10
15.22
16.14
15.61
13.81
11.28
8.71
6.73
5.86
6.46
8.74
12.71
18.13
24.52
31.20
37.47
42.76
46.84
49.79
52.00
53.94
55.88
57.76
59.23
59.93
59.77
59.09
58.55
58.85
60.38
63.07
66.39
69.52
71.59
71.74
69.28
63.79
55.34
44.77
33.76
24.53
19.24
19.22
24.47
33.54
44.14
53.76
60.48
63.25
61.88
56.62
47.84
36.01
21.86
6.69
-7.68
-19.33
-26.94
-30.43
-31.05
-30.95
-32.24
-35.94
-41.41
-46.20
-46.75
-39.55
-22.30
5.11
40.38
79.09
115.51
143.72
158.62
156.98
138.07
103.88
58.67
7.95
-42.83
-89.34
-128.85
-160.04
-182.38
-195.66
-199.91
-195.82
-185.08
-170.34
-154.58
-140.05
-127.65
-116.78
-106.10
-94.49
-81.89
-69.49
-59.25
-52.93
-51.25
-53.55
-58.10
-62.98
-66.79
-69.11
-70.28
-70.94
-71.55
-72.23
-72.82
-73.08
-72.87
-72.13
-70.83
-69.03
-66.78
-64.18
-61.27
-57.93
-53.89
-48.87
-42.80
-35.97
-28.98
-22.45
-16.71
-11.65
-6.75
-1.45
4.52
10.99
17.36
22.91
27.17
30.09
32.05
33.60
35.08
36.40
37.08
36.61
34.91
32.68
31.20
32.00
36.11
43.63
53.62
64.46
74.55
82.94
89.56
95.06
100.23
105.51
110.69
115.17
118.43
120.50
122.17
124.57
128.64
134.55
141.62
148.73
154.69
158.67
160.07
158.31
152.81
143.45
131.23
118.55
108.82
105.19
109.21
119.92
134.25
148.15
158.05
161.84
159.10
150.70
138.19
123.25
107.24
91.04
74.92
58.67
41.90
24.42
6.41
-11.74
-29.76
-47.86
-66.72
-87.14
-109.65
-134.40
-161.27
-189.96
-219.87
-249.75
-277.59
-300.96
-317.75
-327.10
-329.65
-327.21
-321.64
-314.16
-304.95
-293.72
-280.36
-265.23
-249.04
-232.25
-214.79
-196.28
-176.53
-156.13
-136.35
-118.66
-104.00
-92.42
-83.16
-75.17
-67.70
-60.61
-54.17
-48.75
-44.38
-40.72
-37.26
-33.47
-29.04
-23.84
-17.87
-11.23
-4.12
3.11
10.00
16.05
20.89
24.38
26.66
27.99
28.60
28.69
28.44
28.15
28.30
29.34
31.40
34.13
36.75
38.42
38.68
37.77
36.44
35.55
35.57
36.33
37.14
37.25
36.23
34.16
31.49
28.64
25.85
23.10
20.31
17.56
15.07
13.11
11.87
11.36
11.52
12.31
13.77
15.92
18.66
21.59
24.25
26.23
27.39
27.87
27.87
27.43
26.41
24.74
22.69
20.95
20.43
21.64
24.40
27.82
30.78
32.56
33.15
33.11
33.03
33.18
33.41
33.58
33.92
35.20
38.37
43.98
51.73
60.42
68.44
74.31
77.16
76.92
74.12
69.60
64.11
58.05
51.31
43.43
33.74
21.72
7.15
-9.63
-27.66
-45.35
-60.77
-72.20
-78.93
-81.60
-82.25
-83.49
-87.29
-94.13
-102.64
-110.30
-114.54
-113.87
-108.35
-99.29
-88.43
-77.21
-66.41
-56.32
-47.13
-39.19
-33.05
-29.14
-27.44
-27.36
-27.92
-28.18
-27.53
-25.57
-21.81
-15.50
-5.84
7.43
23.36
39.85
54.29
64.54
69.57
69.37
63.98
52.86
34.95
9.75
-21.23
-53.90
-82.35
-100.91
-106.36
-99.16
-82.81
-62.12
-41.12
-21.96
-4.94
10.60
25.30
39.35
52.62
65.12
77.12
88.79
99.50
107.25
109.06
102.28
86.45
64.50
42.03
24.75
15.33
11.64
7.56
-3.56
-25.12
-54.96
-86.31
-111.16
-124.08
-124.22
-114.65
-99.90
-83.46
-66.83
-50.15
-33.56
-18.12
-5.54
2.63
6.05
6.03
5.11
6.18
11.20
20.26
31.42
41.45
47.29
47.50
42.94
36.30
30.64
27.92
28.22
30.04
31.54
31.52
30.10
28.30
27.27
27.60
29.07
30.79
31.74
31.33
29.82
28.38
28.67
32.21
39.55
49.89
61.33
71.62
79.04
82.93
83.52
81.39
76.97
70.37
61.76
51.78
41.60
32.56
25.52
20.46
16.55
12.66
7.96
2.33
-3.65
-8.86
-12.08
-12.30
-8.95
-2.12
7.37
18.02
27.95
35.49
39.61
40.26
38.19
34.61
30.64
26.97
23.84
21.11
18.47
15.50
11.84
7.31
2.03
-3.37
-7.99
-10.99
-12.09
-11.78
-11.15
-11.30
-12.75
-15.18
-17.63
-19.09
-18.96
-17.30
-14.55
-11.18
-7.38
-3.09
1.73
6.89
11.90
16.23
19.63
22.33
24.90
27.87
31.34
34.83
37.44
38.34
37.17
34.23
30.32
26.27
22.58
19.18
15.58
11.21
5.75
-0.63
-7.30
-13.37
-17.92
-20.32
-20.34
-18.26
-14.82
-11.05
-7.97
-6.28
-6.10
-6.92
-7.88
-8.08
-6.99
-4.66
-1.61
1.43
3.85
5.34
5.91
5.62
4.61
3.05
1.26
-0.25
-0.98
-0.68
0.35
1.32
1.26
-0.43
-3.70
-7.89
-12.00
-15.18
-16.90
-17.04
-15.68
-13.11
-9.70
-5.96
-2.50
0.18
1.88
2.73
3.15
3.60
4.38
5.58
7.09
8.66
10.00
10.82
10.90
10.17
8.77
6.91
4.79
2.42
-0.32
-3.59
-7.39
-11.40
-15.10
-17.93
-19.51
-19.79
-18.94
-17.34
-15.34
-13.17
-10.98
-8.74
-6.32
-3.56
-0.34
3.33
7.17
10.65
13.20
14.33
13.91
12.17
9.70
7.15
5.11
3.90
3.66
4.28
5.45
6.66
7.27
6.61
4.24
0.19
-5.00
-10.42
-15.15
-18.62
-20.84
-22.24
-23.33
-24.35
-25.09
-24.98
-23.51
-20.51
-16.29
-11.60
-7.23
-3.79
-1.54
-0.40
-0.21
-0.85
-2.27
-4.42
-7.09
-9.88
-12.17
-13.42
-13.36
-12.25
-10.85
-10.26
-11.51
-15.25
-21.40
-29.19
-37.35
-44.47
-49.40
-51.53
-50.73
-47.34
-41.93
-35.09
-27.39
-19.34
-11.40
-4.01
2.56
8.21
13.15
17.84
22.85
28.56
35.01
41.69
47.76
52.34
54.81
55.08
53.40
50.17
45.60
39.58
31.94
22.75
12.69
3.04
-4.74
-9.49
-10.87
-9.38
-6.10
-2.15
1.64
4.86
7.38
9.14
10.03
10.01
9.27
8.30
7.79
8.29
9.99
12.56
15.30
17.41
18.35
18.00
16.63
14.74
12.81
11.10
9.54
7.79
5.41
2.12
-2.02
-6.59
-11.01
-14.76
-17.66
-19.78
-21.34
-22.41
-22.80
-22.13
-20.12
-16.82
-12.62
-8.09
-3.71
0.27
3.79
6.79
9.13
10.57
11.00
10.51
9.40
8.06
6.84
5.91
5.31
4.95
4.62
4.01
2.74
0.55
-2.56
-6.23
-9.81
-12.55
-13.82
-13.27
-10.83
-6.62
-0.93
5.76
12.73
19.08
23.85
26.23
25.80
22.69
17.58
11.52
5.75
1.36
-1.03
-1.34
-0.06
2.00
4.08
5.62
6.39
6.41
5.75
4.41
2.36
-0.30
-3.38
-6.51
-9.31
-11.55
-13.23
-14.51
-15.65
-16.80
-17.98
-19.02
-19.59
-19.34
-18.03
-15.66
-12.57
-9.37
-6.75
-5.29
-5.18
-6.19
-7.86
-9.60
-10.97
-11.66
-11.49
-10.41
-8.57
-6.38
-4.46
-3.56
-4.22
-6.53
-10.03
-13.91
-17.26
-19.34
-19.80
-18.59
-15.99
-12.41
-8.37
-4.45
-1.15
1.29
3.02
4.45
6.13
8.34
10.97
13.45
15.05
15.23
13.90
11.45
8.57
6.03
4.42
4.06
4.97
6.89
9.31
11.55
12.86
12.67
10.82
7.62
3.81
0.26
-2.33
-3.64
-3.78
-3.12
-2.12
-1.09
-0.10
0.98
2.40
4.34
6.71
9.20
11.39
12.86
13.48
13.33
12.63
11.53
10.10
8.39
6.66
5.48
5.63
7.70
11.72
16.88
21.85
25.19
26.07
24.51
21.34
17.78
14.86
13.04
12.20
11.89
11.70
11.53
11.55
11.99
12.84
13.83
14.43
14.27
13.24
11.58
9.64
7.70
5.78
3.72
1.34
-1.38
-4.27
-7.03
-9.36
-10.99
-11.81
-11.90
-11.57
-11.34
-11.82
-13.43
-16.22
-19.72
-23.17
-25.72
-26.87
-26.52
-24.94
-22.60
-19.84
-16.91
-13.89
-10.85
-7.85
-5.01
-2.41
-0.18
1.54
2.57
2.77
2.09
0.63
-1.37
-3.62
-5.82
-7.66
-8.91
-9.37
-9.06
-8.26
-7.62
-7.87
-9.61
-12.95
-17.38
-22.00
-25.80
-28.10
-28.71
-27.88
-26.02
-23.48
-20.43
-16.90
-12.93
-8.67
-4.38
-0.41
2.95
5.51
7.21
8.00
7.92
7.04
5.59
3.90
2.35
1.19
0.45
-0.14
-1.01
-2.56
-4.99
-8.24
-11.96
-15.66
-18.86
-21.14
-22.29
-22.31
-21.42
-19.93
-18.12
-16.11
-13.81
-11.06
-7.71
-3.75
0.65
5.27
9.88
14.30
18.34
21.78
24.32
25.64
25.52
23.96
21.22
17.78
14.29
11.35
9.39
8.48
8.28
8.11
7.12
4.66
0.50
-5.01
-11.06
-16.62
-20.79
-23.05
-23.40
-22.16
-19.84
-16.92
-13.78
-10.71
-7.99
-5.85
-4.44
-3.73
-3.48
-3.39
-3.18
-2.79
-2.34
-2.09
-2.20
-2.65
-3.19
-3.44
-2.99
-1.65
0.49
3.01
5.29
6.70
6.82
5.65
3.53
0.98
-1.45
-3.38
-4.58
-4.93
-4.38
-3.00
-1.05
1.04
2.67
3.43
3.25
2.54
1.94
2.05
3.06
4.59
5.92
6.25
5.15
2.72
-0.44
-3.49
-5.76
-6.91
-7.08
-6.65
-6.17
-6.02
-6.52
-7.74
-9.67
-12.11
-14.76
-17.14
-18.76
-19.17
-18.09
-15.51
-11.67
-6.99
-1.99
2.84
7.16
10.76
13.53
15.47
16.55
16.80
16.27
15.08
13.38
11.34
9.15
7.03
5.23
3.97
3.36
3.27
3.24
2.67
1.03
-1.88
-5.75
-9.88
-13.47
-15.88
-16.90
-16.65
-15.52
-13.93
-12.24
-10.67
-9.29
-8.06
-6.79
-5.23
-3.19
-0.72
1.93
4.32
6.10
7.10
7.41
7.33
7.14
7.00
6.94
6.95
7.05
7.25
7.52
7.65
7.28
6.03
3.75
0.68
-2.61
-5.36
-6.93
-7.01
-5.69
-3.41
-0.70
2.03
4.61
7.14
9.84
12.88
16.22
19.57
22.47
24.43
25.12
24.45
22.58
19.78
16.31
12.48
8.59
5.06
2.36
0.79
0.31
0.45
0.35
-0.80
-3.47
-7.46
-11.94
-15.74
-17.82
-17.70
-15.61
-12.37
-8.99
-6.30
-4.63
-3.78
-3.31
-2.78
-1.99
-1.05
-0.18
0.50
0.98
1.33
1.59
1.60
1.21
0.34
-0.78
-1.79
-2.41
-2.69
-3.02
-3.88
-5.56
-7.82
-10.07
-11.64
-12.11
-11.46
-10.04
-8.27
-6.52
-5.01
-3.89
-3.29
-3.24
-3.66
-4.26
-4.64
-4.44
-3.55
-2.16
-0.63
0.62
1.34
1.54
1.41
1.25
1.31
1.71
2.37
3.08
3.49
3.27
2.25
0.46
-1.85
-4.21
-6.09
-7.05
-6.83
-5.53
-3.56
-1.49
0.20
1.34
2.15
3.08
4.45
6.24
8.03
9.10
8.94
7.43
4.93
2.11
-0.35
-2.06
-2.84
-2.62
-1.27
1.45
5.57
10.69
15.82
19.62
20.87
19.14
14.95
9.58
4.48
0.65
-1.65
-2.76
-3.07
-2.69
-1.37
1.18
4.80
8.74
11.83
13.02
11.87
8.73
4.58
0.48
-2.81
-5.10
-6.57
-7.57
-8.22
-8.42
-7.92
-6.66
-4.89
-3.23
-2.34
-2.63
-3.97
-5.80
-7.39
-8.16
-7.93
-6.84
-5.18
-3.21
-1.03
1.37
3.93
6.52
8.89
10.78
11.97
12.44
12.29
11.72
11.05
10.57
10.49
10.93
11.81
12.86
13.66
13.76
12.72
10.29
6.56
1.95
-2.79
-6.85
-9.62
-10.82
-10.62
-9.45
-7.76
-5.90
-4.00
-2.12
-0.26
1.47
2.98
4.21
5.12
5.69
5.90
5.74
5.29
4.74
4.43
4.68
5.62
7.07
8.50
9.24
8.67
6.61
3.36
-0.38
-3.73
-5.96
-6.69
-5.98
-4.20
-1.81
0.75
3.23
5.50
7.49
9.18
10.55
11.55
12.08
12.01
11.22
9.71
7.64
5.36
3.30
1.80
1.05
1.03
1.51
2.14
2.55
2.42
1.64
0.31
-1.24
-2.60
-3.49
-3.85
-3.93
-4.11
-4.69
-5.62
-6.55
-6.96
-6.46
-5.02
-2.96
-0.88
0.77
1.75
2.11
2.03
1.60
0.74
-0.66
-2.53
-4.47
-5.79
-5.86
-4.41
-1.77
1.21
3.60
4.79
4.71
3.77
2.58
1.53
0.64
-0.29
-1.47
-2.86
-4.22
-5.22
-5.74
-5.95
-6.20
-6.77
-7.73
-8.95
-10.18
-11.27
-12.15
-12.84
-13.31
-13.43
-13.13
-12.40
-11.38
-10.17
-8.83
-7.30
-5.55
-3.61
-1.66
0.03
1.30
2.11
2.55
2.77
2.89
3.06
3.43
4.18
5.36
6.88
8.42
9.59
10.01
9.50
8.04
5.79
3.05
0.22
-2.21
-3.77
-4.23
-3.67
-2.54
-1.46
-0.97
-1.32
-2.47
-4.14
-5.95
-7.59
-8.80
-9.42
-9.33
-8.54
-7.11
-5.24
-3.18
-1.17
0.60
2.01
3.03
3.79
4.46
5.18
6.03
6.89
7.43
7.28
6.25
4.44
2.26
0.33
-0.87
-1.07
-0.39
0.70
1.61
1.73
0.67
-1.65
-4.97
-8.75
-12.31
-15.03
-16.44
-16.37
-14.90
-12.34
-9.13
-5.72
-2.57
-0.01
1.74
2.71
3.11
3.25
3.42
3.79
4.35
4.89
5.15
4.90
4.08
2.81
1.35
0.01
-0.97
-1.49
-1.64
-1.61
-1.70
-2.17
-3.26
-5.01
-7.28
-9.70
-11.82
-13.24
-13.74
-13.36
-12.27
-10.64
-8.53
-5.99
-3.15
-0.30
2.17
3.94
4.94
5.39
5.66
6.05
6.63
7.27
7.75
7.96
8.03
8.18
8.58
9.21
9.85
10.19
10.04
9.39
8.47
7.53
6.75
6.06
5.20
3.91
1.98
-0.48
-3.18
-5.70
-7.60
-8.55
-8.36
-7.05
-4.71
-1.64
1.75
5.01
7.71
9.59
10.56
10.69
10.11
8.99
7.54
6.01
4.72
3.97
3.88
4.36
5.15
5.88
6.34
6.52
6.52
6.50
6.46
6.34
5.98
5.26
4.08
2.40
0.23
-2.32
-5.00
-7.45
-9.26
-10.13
-10.03
-9.09
-7.59
-5.79
-3.83
-1.73
0.49
2.82
5.16
7.34
9.12
10.23
10.52
10.09
9.24
8.41
7.91
7.77
7.81
7.73
7.34
6.75
6.19
5.88
5.88
6.09
6.34
6.54
6.63
6.50
5.93
4.61
2.33
-0.78
-4.30
-7.65
-10.32
-12.07
-12.89
-12.87
-12.03
-10.33
-7.77
-4.50
-0.93
2.45
5.20
7.09
8.15
8.61
8.69
8.55
8.21
7.66
6.95
6.23
5.69
5.48
5.58
5.82
5.96
5.81
5.35
4.69
4.04
3.49
3.01
2.39
1.35
-0.31
-2.61
-5.36
-8.28
-11.03
-13.39
-15.21
-16.38
-16.72
-16.01
-14.06
-10.86
-6.65
-1.97
2.58
6.55
9.76
12.30
14.38
16.14
17.54
18.38
18.46
17.65
15.98
13.64
10.95
8.29
6.05
4.50
3.77
3.82
4.43
5.34
6.25
6.91
6.98
6.08
3.82
-0.04
-5.29
-11.18
-16.61
-20.48
-22.07
-21.30
-18.63
-14.79
-10.40
-5.83
-1.17
3.57
8.35
12.95
17.06
20.29
22.32
22.93
22.15
20.25
17.69
15.00
12.60
10.62
8.98
7.50
6.05
4.64
3.29
1.93
0.32
-1.86
-4.79
-8.38
-12.20
-15.68
-18.28
-19.66
-19.77
-18.80
-17.05
-14.81
-12.34
-9.80
-7.29
-4.82
-2.39
-0.05
2.19
4.31
6.28
8.08
9.56
10.50
10.63
9.78
8.03
5.69
3.26
1.10
-0.58
-1.83
-2.74
-3.37
-3.60
-3.35
-2.72
-2.07
-1.92
-2.65
-4.21
-6.09
-7.49
-7.67
-6.33
-3.70
-0.40
2.87
5.58
7.51
8.71
9.33
9.56
9.54
9.39
9.26
9.26
9.43
9.67
9.80
9.60
8.92
7.77
6.35
4.98
3.98
3.59
3.79
4.37
4.93
5.02
4.34
2.82
0.64
-1.82
-4.12
-5.88
-6.88
-7.03
-6.38
-5.12
-3.48
-1.65
0.23
2.08
3.83
5.31
6.23
6.27
5.24
3.25
0.74
-1.72
-3.64
-4.86
-5.58
-6.17
-6.93
-7.87
-8.66
-8.81
-8.01
-6.31
-4.25
-2.55
-1.86
-2.46
-4.14
-6.32
-8.39
-9.91
-10.76
-11.07
-11.03
-10.72
-10.04
-8.79
-6.86
-4.24
-1.15
2.09
5.07
7.43
8.94
9.50
9.22
8.34
7.20
6.08
5.17
4.53
4.15
4.03
4.14
4.45
4.75
4.71
3.95
2.27
-0.18
-2.89
-5.20
-6.59
-6.92
-6.48
-5.80
-5.37
-5.30
-5.36
-5.10
-4.11
-2.31
0.08
2.63
4.91
6.64
7.70
8.09
7.82
6.99
5.75
4.38
3.21
2.53
2.42
2.74
3.13
3.20
2.61
1.23
-0.88
-3.47
-6.11
-8.32
-9.68
-10.03
-9.47
-8.38
-7.19
-6.08
-5.00
-3.59
-1.54
1.25
4.52
7.71
10.22
11.58
11.62
10.44
8.39
5.89
3.36
1.15
-0.54
-1.65
-2.26
-2.51
-2.48
-2.29
-2.09
-2.09
-2.60
-3.82
-5.73
-8.01
-10.07
-11.29
-11.27
-9.96
-7.58
-4.57
-1.35
1.72
4.40
6.51
7.98
8.86
9.28
9.41
9.43
9.41
9.42
9.51
9.81
10.42
11.37
12.43
13.20
13.20
12.10
9.81
6.52
2.50
-1.96
-6.60
-11.16
-15.30
-18.54
-20.49
-20.91
-19.88
-17.76
-15.07
-12.24
-9.41
-6.48
-3.24
0.35
4.02
7.17
9.12
9.45
8.28
6.23
4.19
2.92
2.77
3.65
5.23
7.17
9.29
11.49
13.66
15.51
16.63
16.67
15.46
13.08
9.77
5.82
1.50
-2.97
-7.22
-10.82
-13.29
-14.36
-14.06
-12.76
-11.01
-9.40
-8.37
-8.05
-8.35
-8.88
-9.14
-8.64
-7.18
-4.92
-2.45
-0.50
0.30
-0.24
-1.86
-3.93
-5.84
-7.21
-8.00
-8.39
-8.63
-8.80
-8.86
-8.69
-8.17
-7.32
-6.27
-5.18
-4.26
-3.64
-3.34
-3.29
-3.31
-3.26
-3.08
-2.78
-2.46
-2.15
-1.78
-1.16
-0.15
1.30
2.99
4.53
5.51
5.66
4.96
3.61
1.92
0.13
-1.60
-3.18
-4.59
-5.91
-7.26
-8.76
-10.42
-12.11
-13.58
-14.58
-15.04
-15.08
-14.90
-14.56
-13.92
-12.75
-10.89
-8.50
-6.02
-3.89
-2.34
-1.23
-0.20
1.05
2.46
3.72
4.37
4.15
3.15
1.73
0.32
-0.78
-1.55
-2.14
-2.75
-3.53
-4.47
-5.42
-6.21
-6.68
-6.80
-6.67
-6.39
-5.96
-5.21
-3.88
-1.69
1.41
5.18
9.15
12.76
15.58
17.38
18.22
18.26
17.73
16.80
15.61
14.24
12.75
11.19
9.63
8.19
6.97
6.05
5.38
4.87
4.37
3.81
3.26
2.88
2.93
3.61
5.05
7.25
10.11
13.41
16.92
20.37
23.45
25.90
27.45
27.99
27.54
26.31
24.67
23.04
21.65
20.31
18.50
15.58
11.21
5.71
0.11
-4.22
-6.10
-5.12
-1.90
2.12
5.21
6.01
4.01
-0.32
-5.87
-11.36
-15.78
-18.64
-19.85
-19.53
-17.93
-15.37
-12.36
-9.54
-7.59
-6.90
-7.34
-8.36
-9.19
-9.32
-8.67
-7.63
-6.78
-6.62
-7.35
-8.84
-10.69
-12.42
-13.58
-13.90
-13.41
-12.37
-11.28
-10.65
-10.86
-12.08
-14.19
-16.81
-19.35
-21.13
-21.56
-20.34
-17.60
-13.84
-9.75
-5.87
-2.49
0.42
2.93
5.04
6.59
7.36
7.27
6.52
5.53
4.78
4.59
5.01
5.87
6.85
7.68
8.18
8.34
8.26
8.06
7.84
7.62
7.41
7.19
7.01
6.94
7.05
7.40
8.00
8.87
9.99
11.36
12.88
14.35
15.49
16.03
15.88
15.18
14.26
13.43
12.89
12.56
12.26
11.81
11.14
10.32
9.45
8.54
7.44
5.89
3.65
0.64
-3.00
-6.90
-10.57
-13.53
-15.42
-16.10
-15.68
-14.53
-13.15
-12.07
-11.64
-11.93
-12.75
-13.73
-14.56
-15.00
-15.07
-14.88
-14.64
-14.47
-14.43
-14.48
-14.50
-14.30
-13.70
-12.55
-10.79
-8.51
-6.00
-3.68
-2.02
-1.38
-1.91
-3.47
-5.66
-7.86
-9.43
-9.93
-9.22
-7.56
-5.42
-3.25
-1.25
0.61
2.50
4.49
6.34
7.68
8.17
7.75
6.75
5.74
5.23
5.43
6.15
7.00
7.59
7.71
7.37
6.73
5.90
4.97
3.95
2.86
1.73
0.57
-0.59
-1.70
-2.70
-3.46
-3.86
-3.78
-3.16
-2.07
-0.57
1.28
3.42
5.88
8.63
11.55
14.42
16.88
18.53
19.08
18.51
17.19
15.82
15.27
16.25
19.02
23.27
28.18
32.74
36.06
37.65
37.52
36.15
34.31
32.96
32.87
34.46
37.54
41.40
44.98
47.34
47.89
46.47
43.29
38.68
32.99
26.70
20.43
14.96
11.01
8.86
8.21
8.19
7.63
5.61
1.83
-3.36
-9.18
-14.84
-19.89
-24.39
-28.82
-33.80
-39.85
-47.17
-55.55
-64.41
-72.94
-80.19
-85.31
-87.70
-87.15
-83.87
-78.49
-71.92
-65.11
-58.85
-53.73
-49.91
-47.23
-45.28
-43.58
-41.87
-40.23
-39.02
-38.67
-39.36
-40.94
-43.00
-45.19
-47.33
-49.25
-50.62
-50.71
-48.60
-43.66
-36.03
-26.80
-17.65
-10.25
-5.53
-3.47
-3.21
-3.47
-3.03
-1.09
2.61
7.68
13.22
18.08
21.33
22.64
22.44
21.71
21.50
22.45
24.60
27.48
30.56
33.45
36.08
38.54
40.86
42.90
44.40
45.08
44.88
43.96
42.68
41.41
40.31
39.26
37.88
35.76
32.69
28.77
24.41
20.03
15.99
12.40
9.29
6.65
4.66
3.48
3.21
3.76
4.87
6.20
7.51
8.57
9.23
9.30
8.61
7.14
5.16
3.19
1.88
1.72
2.87
5.10
7.97
10.90
13.27
14.53
14.20
12.08
8.34
3.67
-0.89
-4.34
-6.01
-5.84
-4.32
-2.26
-0.43
0.72
1.11
1.00
0.81
0.87
1.31
1.97
2.40
2.06
0.58
-2.08
-5.51
-9.00
-11.83
-13.55
-14.03
-13.47
-12.20
-10.49
-8.55
-6.52
-4.58
-3.01
-2.10
-2.05
-2.85
-4.26
-5.84
-7.06
-7.58
-7.31
-6.43
-5.30
-4.25
-3.49
-3.02
-2.73
-2.48
-2.14
-1.61
-0.79
0.29
1.46
2.38
2.61
1.86
0.12
-2.28
-4.82
-7.01
-8.59
-9.44
-9.52
-8.72
-6.91
-4.17
-0.95
1.99
3.84
4.10
2.90
0.86
-1.24
-2.86
-3.95
-4.86
-6.03
-7.62
-9.28
-10.36
-10.18
-8.50
-5.61
-2.31
0.46
1.99
2.00
0.65
-1.59
-4.19
-6.72
-8.77
-9.99
-9.97
-8.34
-4.95
-0.18
4.99
9.20
11.07
9.83
5.73
-0.03
-5.67
-9.62
-11.07
-10.20
-7.95
-5.50
-3.67
-2.75
-2.47
-2.29
-1.72
-0.52
1.23
3.18
4.83
5.79
5.88
5.18
4.01
2.79
1.91
1.74
2.56
4.58
7.83
12.04
16.60
20.68
23.39
24.04
22.33
18.36
12.65
6.02
-0.50
-5.88
-9.34
-10.64
-10.13
-8.60
-6.88
-5.49
-4.49
-3.63
-2.67
-1.57
-0.51
0.31
0.86
1.26
1.70
2.22
2.74
3.08
3.12
2.86
2.43
1.98
1.64
1.48
1.47
1.40
0.98
-0.20
-2.41
-5.60
-9.32
-12.76
-15.10
-15.78
-14.71
-12.16
-8.70
-4.93
-1.46
1.24
2.88
3.39
3.04
2.36
1.96
2.27
3.39
4.97
6.43
7.17
6.84
5.55
3.76
2.10
1.08
0.95
1.58
2.59
3.52
3.93
3.57
2.27
0.07
-2.84
-6.08
-9.16
-11.57
-12.97
-13.20
-12.32
-10.54
-8.09
-5.23
-2.34
0.20
1.98
2.78
2.63
1.86
0.92
0.19
-0.18
-0.27
-0.30
-0.45
-0.80
-1.23
-1.54
-1.54
-1.19
-0.65
-0.24
-0.33
-1.14
-2.61
-4.45
-6.24
-7.68
-8.56
-8.88
-8.71
-8.11
-7.10
-5.69
-3.86
-1.59
1.15
4.36
7.90
11.41
14.34
16.13
16.51
15.59
13.88
12.00
10.41
9.37
8.86
8.84
9.22
9.92
10.74
11.32
11.29
10.44
8.88
7.01
5.34
4.26
3.91
4.14
4.66
5.18
5.52
5.76
6.12
6.92
8.49
10.92
13.99
17.23
20.01
21.83
22.41
21.78
20.20
17.99
15.45
12.87
10.49
8.54
7.13
6.24
5.67
5.11
4.23
2.84
0.86
-1.61
-4.37
-7.18
-9.82
-12.10
-13.89
-15.13
-15.80
-15.90
-15.37
-14.17
-12.28
-9.72
-6.60
-3.13
0.40
3.64
6.17
7.61
7.69
6.39
3.99
1.03
-1.89
-4.18
-5.48
-5.68
-4.83
-3.16
-0.96
1.37
3.32
4.38
4.19
2.67
0.09
-2.99
-5.94
-8.22
-9.56
-9.93
-9.47
-8.41
-7.01
-5.51
-4.14
-3.04
-2.20
-1.45
-0.57
0.60
1.95
3.19
3.88
3.70
2.56
0.66
-1.54
-3.52
-4.84
-5.21
-4.52
-2.83
-0.35
2.56
5.37
7.48
8.40
7.89
6.10
3.50
0.71
-1.62
-3.04
-3.37
-2.64
-1.03
1.21
3.78
6.34
8.55
10.01
10.50
9.92
8.44
6.36
4.06
1.85
-0.02
-1.40
-2.24
-2.57
-2.49
-2.19
-1.83
-1.51
-1.17
-0.71
-0.13
0.38
0.45
-0.30
-1.92
-4.11
-6.22
-7.57
-7.78
-6.90
-5.34
-3.52
-1.71
0.13
2.14
4.37
6.63
8.64
10.13
10.98
11.22
10.93
10.15
8.80
6.89
4.54
2.07
-0.09
-1.62
-2.35
-2.30
-1.62
-0.54
0.64
1.48
1.45
0.10
-2.71
-6.60
-10.76
-14.15
-15.90
-15.68
-13.69
-10.60
-7.18
-4.02
-1.38
0.76
2.60
4.32
6.02
7.68
9.21
10.52
11.52
12.07
12.01
11.21
9.67
7.58
5.33
3.37
2.06
1.55
1.68
2.05
2.13
1.38
-0.56
-3.79
-8.01
-12.56
-16.56
-19.15
-19.80
-18.46
-15.57
-11.76
-7.58
-3.33
0.87
4.84
8.16
10.20
10.43
8.86
6.26
3.89
2.99
4.15
7.01
10.44
13.17
14.38
14.03
12.75
11.31
10.21
9.40
8.40
6.62
3.69
-0.33
-5.03
-9.75
-13.90
-17.00
-18.82
-19.31
-18.53
-16.65
-13.91
-10.62
-7.14
-3.84
-0.99
1.29
3.04
4.41
5.59
6.65
7.59
8.29
8.65
8.63
8.32
7.92
7.62
7.59
7.84
8.25
8.48
8.09
6.65
4.02
0.41
-3.54
-7.00
-9.19
-9.69
-8.53
-6.12
-3.00
0.35
3.62
6.60
9.10
10.92
11.82
11.74
10.79
9.25
7.49
5.83
4.52
3.69
3.35
3.37
3.55
3.59
3.21
2.28
0.90
-0.62
-1.96
-2.96
-3.74
-4.71
-6.27
-8.59
-11.44
-14.24
-16.30
-17.17
-16.76
-15.38
-13.47
-11.42
-9.40
-7.45
-5.48
-3.51
-1.66
-0.09
1.01
1.57
1.56
1.03
0.12
-0.99
-2.04
-2.75
-2.97
-2.67
-2.00
-1.20
-0.49
-0.10
-0.17
-0.88
-2.36
-4.61
-7.37
-10.10
-12.16
-12.97
-12.36
-10.55
-8.05
-5.41
-2.98
-0.94
0.72
2.01
2.91
3.38
3.51
3.47
3.44
3.50
3.55
3.40
2.92
2.20
1.45
0.99
1.05
1.67
2.69
3.83
4.78
5.22
4.95
3.89
2.22
0.34
-1.23
-2.04
-1.94
-1.15
-0.17
0.46
0.42
-0.24
-1.18
-1.89
-1.92
-0.98
1.07
4.06
7.63
11.13
13.86
15.12
14.55
12.26
8.85
5.26
2.48
1.13
1.27
2.37
3.55
3.96
3.12
1.10
-1.63
-4.43
-6.86
-8.81
-10.42
-11.86
-13.07
-13.84
-13.85
-13.00
-11.46
-9.67
-8.08
-7.00
-6.45
-6.30
-6.37
-6.62
-7.11
-7.93
-9.05
-10.20
-10.94
-10.74
-9.24
-6.41
-2.66
1.23
4.34
5.88
5.51
3.41
0.23
-3.17
-5.99
-7.74
-8.27
-7.76
-6.58
-5.16
-3.83
-2.75
-1.88
-1.04
-0.02
1.29
2.81
4.37
5.73
6.71
7.22
7.18
6.39
4.65
1.86
-1.74
-5.59
-8.90
-11.07
-11.94
-11.85
-11.35
-10.90
-10.58
-10.21
-9.56
-8.65
-7.75
-7.19
-7.03
-6.94
-6.27
-4.41
-1.14
3.24
7.94
12.03
14.74
15.71
15.13
13.56
11.71
10.19
9.29
8.97
8.96
8.94
8.61
7.77
6.25
3.98
1.07
-2.14
-5.08
-7.08
-7.72
-6.99
-5.35
-3.49
-1.98
-0.98
-0.24
0.67
2.11
4.11
6.38
8.41
9.78
10.20
9.65
8.32
6.54
4.71
3.25
2.53
2.74
3.81
5.37
6.84
7.52
6.86
4.59
0.81
-3.97
-8.98
-13.43
-16.76
-18.77
-19.63
-19.61
-18.89
-17.48
-15.29
-12.35
-9.01
-5.83
-3.37
-1.92
-1.34
-1.22
-1.13
-0.87
-0.51
-0.22
-0.04
0.19
0.77
1.86
3.32
4.69
5.41
5.07
3.66
1.51
-0.79
-2.72
-3.93
-4.31
-3.89
-2.75
-0.98
1.36
4.11
7.08
10.11
13.04
15.83
18.40
20.63
22.27
23.01
22.59
21.00
18.51
15.68
13.13
11.40
10.64
10.62
10.72
10.24
8.66
5.88
2.29
-1.46
-4.68
-6.94
-8.07
-8.15
-7.35
-5.83
-3.78
-1.43
0.88
2.79
4.08
4.74
4.97
5.04
5.18
5.48
5.93
6.47
7.03
7.59
8.14
8.70
9.31
10.00
10.68
11.11
10.96
9.87
7.64
4.34
0.41
-3.53
-6.75
-8.76
-9.33
-8.60
-6.92
-4.70
-2.33
-0.03
2.09
4.05
5.92
7.79
9.69
11.56
13.14
14.07
13.99
12.76
10.63
8.19
6.22
5.20
5.11
5.38
5.22
4.02
1.68
-1.39
-4.47
-6.98
-8.61
-9.42
-9.63
-9.42
-8.81
-7.79
-6.40
-4.79
-3.24
-1.95
-0.96
-0.17
0.59
1.39
2.10
2.52
2.46
1.91
1.01
0.02
-0.86
-1.53
-2.03
-2.40
-2.68
-2.83
-2.89
-2.96
-3.28
-4.07
-5.46
-7.32
-9.28
-10.83
-11.49
-11.04
-9.58
-7.53
-5.43
-3.67
-2.29
-1.08
0.31
2.05
4.00
5.79
6.98
7.29
6.70
5.38
3.65
1.81
0.13
-1.19
-2.02
-2.31
-2.15
-1.73
-1.32
-1.21
-1.71
-3.05
-5.34
-8.41
-11.79
-14.75
-16.53
-16.62
-14.98
-12.00
-8.36
-4.74
-1.60
0.84
2.61
3.80
4.51
4.88
5.03
5.05
4.96
4.67
4.04
3.02
1.69
0.31
-0.76
-1.23
-0.99
-0.22
0.69
1.28
1.16
0.18
-1.46
-3.33
-4.94
-5.87
-6.05
-5.68
-5.12
-4.65
-4.33
-4.00
-3.44
-2.49
-1.15
0.46
2.20
3.92
5.36
6.09
5.55
3.31
-0.60
-5.50
-10.25
-13.65
-14.98
-14.26
-12.17
-9.68
-7.62
-6.45
-6.17
-6.49
-7.02
-7.35
-7.13
-6.10
-4.15
-1.40
1.79
4.89
7.36
8.81
9.17
8.71
8.02
7.76
8.40
10.01
12.19
14.25
15.49
15.46
14.09
11.68
8.71
5.77
3.37
1.95
1.71
2.49
3.79
4.82
4.90
3.75
1.64
-0.70
-2.48
-3.26
-3.07
-2.29
-1.35
-0.46
0.47
1.65
3.24
5.12
6.98
8.42
9.17
9.14
8.45
7.35
6.13
4.99
4.02
3.15
2.25
1.20
-0.02
-1.32
-2.57
-3.75
-5.03
-6.69
-8.94
-11.78
-14.86
-17.58
-19.30
-19.64
-18.61
-16.58
-14.13
-11.77
-9.82
-8.37
-7.31
-6.47
-5.65
-4.75
-3.76
-2.79
-2.08
-1.82
-2.17
-3.10
-4.45
-5.95
-7.39
-8.59
-9.45
-9.82
-9.58
-8.77
-7.67
-6.82
-6.74
-7.63
-9.14
-10.58
-11.23
-10.80
-9.46
-7.71
-5.96
-4.31
-2.68
-1.02
0.49
1.38
1.26
0.10
-1.64
-3.19
-3.89
-3.43
-1.95
0.13
2.36
4.40
6.08
7.29
7.95
7.93
7.06
5.22
2.37
-1.33
-5.51
-9.67
-13.29
-15.95
-17.44
-17.71
-16.80
-14.83
-11.96
-8.52
-5.04
-2.11
-0.25
0.34
-0.07
-0.90
-1.50
-1.44
-0.60
0.84
2.63
4.56
6.54
8.59
10.69
12.80
14.81
16.65
18.33
19.91
21.33
22.37
22.58
21.53
19.00
15.22
10.81
6.59
3.26
1.18
0.27
0.18
0.45
0.77
1.00
1.14
1.27
1.54
2.09
3.01
4.29
5.75
7.03
7.74
7.54
6.30
4.08
1.17
-2.02
-5.02
-7.32
-8.47
-8.25
-6.76
-4.46
-2.00
-0.02
1.12
1.38
0.95
0.09
-1.01
-2.23
-3.47
-4.58
-5.36
-5.67
-5.48
-4.91
-4.19
-3.45
-2.77
-2.09
-1.36
-0.49
0.52
1.64
2.84
3.97
4.81
5.09
4.66
3.60
2.34
1.43
1.33
2.06
3.09
3.60
2.76
0.21
-3.81
-8.56
-13.14
-16.90
-19.49
-20.99
-21.62
-21.63
-21.25
-20.71
-20.28
-20.19
-20.57
-21.43
-22.73
-24.43
-26.62
-29.38
-32.63
-36.04
-39.04
-41.09
-41.93
-41.66
-40.80
